LBFT X,LBFT Y,LBFT Z,LLAN X,LLAN Y,LLAN Z,LMAN X,LMAN Y,LMAN Z,RBFT X,RBFT Y,RBFT Z,RLAN X,RLAN Y,RLAN Z,RMAN X,RMAN Y,RMAN Z
-980.9428711,83.76613617,-751.7205811,-924.7512817,118.6543732,-796.0806274,-896.5040894,112.1000366,-721.048645,-968.8927002,87.94941711,-476.0559692,-921.732605,124.5206528,-433.6948547,-882.6385498,117.3883133,-503.5536499
-980.9592896,83.74775696,-751.7178955,-924.7354126,118.6188049,-796.0618286,-896.5100708,112.0886307,-721.0352173,-968.9199219,87.95189667,-476.0699158,-921.7254028,124.5314026,-433.685791,-882.6433105,117.3971405,-503.5503845
-980.9512939,83.76278687,-751.7131348,-924.739624,118.6249847,-796.1022949,-896.5174561,112.0790558,-721.0393677,-968.9035645,87.94298553,-476.0689697,-921.7329102,124.5144272,-433.68396,-882.6575928,117.3841095,-503.5525208
-980.9710083,83.74681854,-751.7208252,-924.7307739,118.6038208,-796.0831909,-896.5131226,112.1020737,-721.0477905,-968.9104614,87.95016479,-476.0635681,-921.7286377,124.5028305,-433.6991272,-882.6542358,117.391243,-503.5653992
-980.9571533,83.75286865,-751.7327271,-924.7134399,118.6255341,-796.0828247,-896.4954834,112.0876846,-721.0501709,-968.914856,87.93306732,-476.0657043,-921.7322998,124.501442,-433.6860046,-882.6652222,117.4067459,-503.559082
-980.9606323,83.72985077,-751.7365112,-924.7095947,118.5699997,-796.0881958,-896.510498,112.0708694,-721.0423584,-968.9091187,87.90950012,-476.0575562,-921.7484131,124.5141983,-433.6785278,-882.6868286,117.4049377,-503.575592
-980.9627075,83.72499084,-751.7576294,-924.6970825,118.556427,-796.0855713,-896.522644,112.0911865,-721.0427246,-968.9445801,87.92978668,-476.0649719,-921.7497559,124.4894943,-433.675354,-882.6740723,117.3925552,-503.5569458
-980.9597168,83.71624756,-751.7425537,-924.694519,118.5734177,-796.1027222,-896.5286865,112.0806274,-721.0328979,-968.9365845,87.90651703,-476.0718079,-921.7704468,124.4931107,-433.67276,-882.6694336,117.3854065,-503.5528259
-980.9606934,83.72261047,-751.7587891,-924.6604614,118.5446396,-796.0808105,-896.5280762,112.0646362,-721.0615845,-968.9428711,87.91443634,-476.0888672,-921.7894287,124.4610367,-433.6662292,-882.6890869,117.3744965,-503.5631409
-980.9611206,83.71496582,-751.7577515,-924.6500854,118.5615158,-796.083313,-896.5455933,112.0804672,-721.0476074,-968.9257813,87.88440704,-476.09729,-921.7900391,124.4595413,-433.6852112,-882.6835938,117.3950043,-503.5515747
-980.9680176,83.72194672,-751.7454834,-924.6212769,118.6156616,-796.104126,-896.5422974,112.0790787,-721.0491943,-968.9434204,87.8928833,-476.0858154,-921.7929688,124.4688492,-433.6578064,-882.6796265,117.4254761,-503.5473328
-980.956604,83.71451569,-751.7512817,-924.6846924,118.6001129,-796.1030884,-896.5438232,112.0671387,-721.0480347,-968.9259033,87.87760162,-476.1072083,-921.7908325,124.4634018,-433.6706238,-882.6559448,117.4260712,-503.5421753
-980.9632568,83.72966766,-751.7433472,-924.6526489,118.5733032,-796.0955811,-896.5496216,112.0700226,-721.0249023,-968.9552612,87.90267181,-476.0827026,-921.7905273,124.4833221,-433.6474609,-882.6750488,117.4158478,-503.5456238
-980.9562988,83.70107269,-751.7456665,-924.6118774,118.5688629,-796.0700684,-896.5546875,112.0843658,-721.038208,-968.9494019,87.89285278,-476.0930176,-921.7842407,124.4675827,-433.6494141,-882.6781616,117.3895035,-503.5302429
-980.9487305,83.70308685,-751.7531128,-924.6605225,118.5863495,-796.0984497,-896.539917,112.0775528,-721.0546875,-968.9623413,87.8955307,-476.0891724,-921.7835693,124.4737778,-433.6395264,-882.6878052,117.4069366,-503.5449524
-980.9622803,83.71070099,-751.7641602,-924.632019,118.5675354,-796.0974121,-896.5368042,112.0801163,-721.0549316,-968.9501343,87.883461,-476.096405,-921.769104,124.4834213,-433.6457825,-882.6557007,117.3932495,-503.5470581
-980.949585,83.7070694,-751.767334,-924.6018066,118.5656815,-796.1152954,-896.5330811,112.0774765,-721.0708008,-968.9333496,87.90490723,-476.0917053,-921.7747803,124.4826279,-433.6474915,-882.6856689,117.3959579,-503.5840759
-980.9499512,83.72566986,-751.7559204,-924.6124268,118.5668869,-796.1154175,-896.5488281,112.0909348,-721.0806885,-968.9321289,87.91590118,-476.1003723,-921.7593384,124.4858932,-433.6575928,-882.6680298,117.42556,-503.5724487
-980.9486694,83.72598267,-751.7584229,-924.5910645,118.5352631,-796.0756226,-896.5497437,112.0821533,-721.0771484,-968.9213867,87.90142822,-476.1167908,-921.7775269,124.4987793,-433.6696777,-882.6602173,117.4045334,-503.5773315
-980.9483032,83.73190308,-751.75354,-924.6538086,118.5665741,-796.0992432,-896.5422363,112.0708771,-721.0923462,-968.9338379,87.90996552,-476.1123657,-921.7592163,124.4978867,-433.6644897,-882.6464844,117.4071045,-503.5559998
-980.9404907,83.71416473,-751.7785034,-924.6148071,118.5499954,-796.1119995,-896.5509033,112.0914536,-721.0864258,-968.9451294,87.94197083,-476.1024475,-921.7537842,124.503334,-433.7080994,-882.6278076,117.4100037,-503.5649414
-980.9447632,83.71577454,-751.7764282,-924.6112061,118.5494614,-796.1517334,-896.5595093,112.0871353,-721.1018066,-968.930603,87.92199707,-476.1047363,-921.7227783,124.5339279,-433.696991,-882.6469116,117.4069366,-503.5964661
-980.9404297,83.72927094,-751.7723389,-924.6342163,118.534996,-796.1166992,-896.5349121,112.0701294,-721.0957031,-968.9334106,87.9460144,-476.0818787,-921.7299805,124.5158234,-433.7018127,-882.6072388,117.4189682,-503.580719
-980.925415,83.72451782,-751.7741699,-924.6430664,118.5663834,-796.1325073,-896.5353394,112.0883026,-721.1002808,-968.9238281,87.96543884,-476.0793762,-921.7157593,124.5419922,-433.6881104,-882.6119995,117.4072647,-503.5740356
-980.909668,83.74214172,-751.7815552,-924.6565552,118.5874023,-796.1538086,-896.5284424,112.0963135,-721.0957031,-968.9008789,87.9377594,-476.0921936,-921.7176514,124.5324326,-433.6923828,-882.605957,117.4185715,-503.5708923
-980.9312134,83.74875641,-751.7602539,-924.6204834,118.5581741,-796.130249,-896.5545654,112.1002579,-721.0946045,-968.9257202,87.95415497,-476.0860901,-921.7260132,124.5342102,-433.7000732,-882.607666,117.4221115,-503.5767212
-980.9312744,83.75955963,-751.7623901,-924.6139526,118.5801468,-796.1395264,-896.5253296,112.1011505,-721.1000977,-968.9071655,87.95095062,-476.0975037,-921.7051392,124.5401154,-433.6999207,-882.6141357,117.4129868,-503.5997314
-980.9225464,83.73802185,-751.7634888,-924.6133423,118.5542297,-796.119812,-896.5336304,112.0998154,-721.1080933,-968.9319458,87.98215485,-476.086731,-921.7105103,124.5448303,-433.7311707,-882.6135254,117.4228516,-503.6009216
-980.9237671,83.75492096,-751.7529297,-924.5946655,118.5971146,-796.173584,-896.5375366,112.1179199,-721.1135864,-968.9155884,87.95840454,-476.0930176,-921.7072144,124.5449066,-433.7314758,-882.5968628,117.4310684,-503.6089172
-980.9194946,83.74985504,-751.78479,-924.5935059,118.605217,-796.1755371,-896.5276489,112.1112061,-721.0944824,-968.9257813,87.97113037,-476.0929871,-921.6929321,124.5599747,-433.7290649,-882.5814819,117.4137344,-503.607605
-980.9152222,83.76000214,-751.7678223,-924.6013184,118.6059341,-796.1745605,-896.5144043,112.0993652,-721.1171265,-968.8966675,87.97209167,-476.0898438,-921.6815186,124.5592346,-433.7174988,-882.5615234,117.4012756,-503.5994263
-980.9259033,83.77231598,-751.7475586,-924.5792236,118.6237106,-796.1557007,-896.5355835,112.1083069,-721.1157227,-968.9039307,87.96102905,-476.1037903,-921.6911011,124.5795441,-433.742218,-882.5449219,117.4095078,-503.6164856
-980.9107056,83.75857544,-751.7675781,-924.6213989,118.631752,-796.1787109,-896.5299072,112.1177826,-721.1164551,-968.8839722,87.97344971,-476.1071167,-921.6755981,124.5893936,-433.7331238,-882.5776978,117.417099,-503.6168518
-980.913208,83.77803802,-751.7449951,-924.5658569,118.6369095,-796.140564,-896.5465088,112.1295853,-721.1168823,-968.8839111,87.97732544,-476.1239319,-921.6633911,124.5914078,-433.7313843,-882.5229492,117.4277573,-503.6206665
-980.9101563,83.78466034,-751.7475586,-924.560791,118.6478729,-796.1519775,-896.5316162,112.1367722,-721.1104126,-968.8969116,88.00771332,-476.0982666,-921.6544189,124.5984802,-433.7556763,-882.5327759,117.4287262,-503.6064758
-980.9026489,83.79401398,-751.7512817,-924.5527344,118.6867447,-796.1981201,-896.5228271,112.16539,-721.1064453,-968.9032593,88.02519989,-476.108429,-921.6507568,124.6165161,-433.7559509,-882.5249634,117.424614,-503.6259155
-980.8967896,83.80445099,-751.743042,-924.5688477,118.6911087,-796.1779175,-896.5043335,112.1574707,-721.123291,-968.8937378,88.02553558,-476.1089783,-921.6450195,124.6299591,-433.7615967,-882.5164185,117.4151993,-503.6235657
-980.8895264,83.81744385,-751.7407227,-924.5532227,118.6946945,-796.1915894,-896.5200195,112.1822281,-721.1022949,-968.8962402,88.03020477,-476.0917358,-921.6463013,124.624527,-433.7679138,-882.4884033,117.4295349,-503.6281738
-980.8933105,83.84598541,-751.7260742,-924.5738525,118.7428894,-796.230835,-896.5084229,112.1943512,-721.123291,-968.8574829,88.04108429,-476.099823,-921.6287842,124.6359482,-433.7799988,-882.4539185,117.4235916,-503.6262512
-980.8783569,83.82169342,-751.7323608,-924.5244751,118.7686996,-796.2576294,-896.5050049,112.2092819,-721.1170044,-968.8666992,88.0322876,-476.0971985,-921.6378784,124.6458282,-433.7601318,-882.456604,117.4354477,-503.6357422
-980.8815308,83.86042786,-751.7254028,-924.5150757,118.7281494,-796.2574463,-896.5223999,112.2279205,-721.1384277,-968.8528442,88.022995,-476.12146,-921.6370239,124.6462326,-433.8003235,-882.472229,117.4393082,-503.6387939
-980.8952026,83.86470795,-751.7276001,-924.4845581,118.815712,-796.3016968,-896.5332031,112.2267532,-721.1376343,-968.8665161,88.04566193,-476.1231995,-921.6345825,124.6602402,-433.8018494,-882.4625854,117.4296112,-503.6543884
-980.866333,83.86771393,-751.7043457,-924.4294434,118.7832947,-796.2692261,-896.5234985,112.2534637,-721.1201172,-968.857666,88.05923462,-476.1135254,-921.6315918,124.6626129,-433.8174744,-882.4556274,117.4546204,-503.6567688
-980.8544312,83.90129852,-751.71521,-924.4436035,118.8392715,-796.335083,-896.4857178,112.2721634,-721.1373291,-968.8577271,88.05300903,-476.1222229,-921.6216431,124.6565018,-433.8391418,-882.4422607,117.4198303,-503.6456909
-980.8330688,83.91394806,-751.7053833,-924.3671265,118.834816,-796.3422852,-896.4613647,112.3035278,-721.1661987,-968.8555298,88.06993866,-476.1309204,-921.597229,124.6855316,-433.8188782,-882.4239502,117.4235153,-503.6429443
-980.817627,83.93859863,-751.7045288,-924.3305054,118.9217987,-796.3889771,-896.4406128,112.3562012,-721.185791,-968.842041,88.07603455,-476.1227112,-921.6017456,124.6925507,-433.8185425,-882.4193726,117.4302979,-503.6244202
-980.817688,83.96084595,-751.7078247,-924.2478638,118.9752884,-796.399231,-896.4234619,112.3845062,-721.2243652,-968.821167,88.06706238,-476.1246338,-921.5856934,124.7011337,-433.8146057,-882.4102783,117.4387665,-503.6432495
-980.7908325,83.98453522,-751.7151489,-924.2528687,118.9587479,-796.4315796,-896.4000854,112.4328003,-721.2211304,-968.8337402,88.08329773,-476.0997009,-921.5957031,124.7079468,-433.8330994,-882.3832397,117.4556198,-503.6363831
-980.7984619,84.01641846,-751.7012939,-924.1759644,118.9828186,-796.4539795,-896.3877563,112.4401474,-721.2253418,-968.8314819,88.09792328,-476.1117554,-921.5489502,124.70121,-433.8412476,-882.3850708,117.4345551,-503.650177
-980.7612915,84.02098846,-751.6985474,-924.1536865,118.9953232,-796.4615479,-896.3762817,112.4641571,-721.2340698,-968.8139038,88.10697937,-476.1112366,-921.5535278,124.731575,-433.8362732,-882.3800659,117.4571152,-503.645752
-980.7645874,84.0533371,-751.7001343,-924.0817871,119.0621262,-796.4897461,-896.3540649,112.4906387,-721.222168,-968.8265991,88.12625122,-476.1004028,-921.5352783,124.7174377,-433.844574,-882.348999,117.4540863,-503.6555176
-980.7355347,84.05812836,-751.711792,-924.2626953,119.2305984,-796.3770142,-896.3135986,112.536087,-721.218811,-968.7833252,88.13085175,-476.1370544,-921.5542603,124.7226486,-433.8391418,-882.3499146,117.4446259,-503.6611938
-980.7476196,84.08666992,-751.6883545,-924.1768188,119.2172623,-796.3931274,-896.2683716,112.5553055,-721.2249756,-968.770752,88.12689209,-476.1409607,-921.5184937,124.7525635,-433.865387,-882.338501,117.4512787,-503.6670837
-980.7560425,84.14492035,-751.6813354,-924.1992188,119.2606125,-796.4040527,-896.2415161,112.5867157,-721.241272,-968.7544556,88.15906525,-476.147644,-921.5126343,124.760788,-433.8630676,-882.28479,117.463707,-503.6446228
-980.7211914,84.1453476,-751.6809692,-924.1589355,119.3113861,-796.4360962,-896.2028809,112.5724106,-721.2437134,-968.755188,88.16869354,-476.1339111,-921.4939575,124.7849045,-433.8625488,-882.302002,117.4730682,-503.6604309
-980.7169189,84.17668152,-751.6738892,-924.0762329,119.3065567,-796.40271,-896.1936646,112.6289749,-721.2376099,-968.7420654,88.20179749,-476.109314,-921.4711914,124.8095322,-433.859436,-882.2507935,117.5016556,-503.6385498
-980.7108765,84.20281982,-751.6715088,-924.0802612,119.3400497,-796.3961182,-896.1516724,112.6382217,-721.2337646,-968.7313232,88.20989227,-476.0982666,-921.4503784,124.8401642,-433.8153381,-882.2546997,117.4995499,-503.6311646
-980.6959839,84.22650909,-751.6544189,-923.9976196,119.4037399,-796.4771118,-896.1240234,112.650322,-721.236084,-968.7260742,88.22260284,-476.0901184,-921.4371338,124.8358154,-433.8260193,-882.2059326,117.5157318,-503.6247253
-980.651062,84.22862244,-751.6544189,-923.9387817,119.418808,-796.4266357,-896.1099243,112.6949463,-721.2397461,-968.6951904,88.23193359,-476.0900574,-921.4263306,124.8505783,-433.8229675,-882.2023926,117.5190887,-503.6416321
-980.6491089,84.2533493,-751.6273193,-923.8964233,119.4808884,-796.4899902,-896.0877075,112.733429,-721.244751,-968.71698,88.25688171,-476.0877991,-921.4191895,124.8629227,-433.8126831,-882.1528931,117.5292358,-503.6170959
-980.6572266,84.28130341,-751.6338501,-923.8413086,119.5185013,-796.4869995,-896.0652466,112.7543259,-721.2568359,-968.677063,88.27121735,-476.0938416,-921.4003296,124.8795242,-433.8356934,-882.1497803,117.5315704,-503.6173096
-980.6422729,84.3092041,-751.6309814,-923.7772827,119.4980316,-796.4812622,-896.0512085,112.7906876,-721.2700195,-968.6963501,88.30251312,-476.0936279,-921.3631592,124.9127655,-433.8287659,-882.1327515,117.5334473,-503.5922852
-980.612854,84.3267746,-751.633667,-923.7497559,119.5521164,-796.519104,-896.0154419,112.8116226,-721.2732544,-968.6731567,88.28617096,-476.0915222,-921.354187,124.8985062,-433.8410339,-882.0924683,117.5364227,-503.617157
-980.6210327,84.34331512,-751.644043,-923.774292,119.637207,-796.5629272,-896.0221558,112.8281021,-721.3046265,-968.677002,88.31764984,-476.0982666,-921.3400879,124.9294052,-433.8653259,-882.0941162,117.5471878,-503.6188049
-980.5991211,84.37789917,-751.6160889,-923.6710205,119.6122818,-796.5148926,-895.9859619,112.8594894,-721.2894897,-968.6484985,88.32798767,-476.0967102,-921.3278198,124.9392776,-433.8383179,-882.0953369,117.5697632,-503.6330566
-980.5958862,84.38387299,-751.6287231,-923.6932373,119.7289581,-796.6112671,-895.9805298,112.8789978,-721.270874,-968.6461792,88.32899475,-476.0970459,-921.3361206,124.9554367,-433.8339844,-882.0725098,117.5631943,-503.630249
-980.581665,84.38843536,-751.6203003,-923.632019,119.6565018,-796.5549927,-895.9827271,112.8970108,-721.2722168,-968.6378174,88.34163666,-476.0766602,-921.3349609,124.9742203,-433.8257141,-882.0585938,117.5490494,-503.6242981
-980.5765381,84.40524292,-751.6204224,-923.6304321,119.6804276,-796.5217285,-895.9648438,112.9023819,-721.2700195,-968.6663818,88.35858917,-476.057312,-921.2820435,124.9747849,-433.8436279,-882.0812378,117.5739136,-503.6160583
-980.5882568,84.41172791,-751.6068115,-923.7094116,119.7142792,-796.5228271,-895.980835,112.9231415,-721.2740479,-968.6575928,88.35326385,-476.0708618,-921.2791138,124.9788895,-433.8410645,-882.071228,117.5539398,-503.6061707
-980.5803223,84.4315033,-751.5891724,-923.6824341,119.7777023,-796.5507813,-895.9768677,112.9177704,-721.258606,-968.635498,88.37569427,-476.0430298,-921.2755127,124.9890289,-433.8002625,-882.0648804,117.5754929,-503.6231689
-980.5847778,84.44546509,-751.602478,-923.7202148,119.7906342,-796.5599976,-895.9786377,112.9225998,-721.2452393,-968.6113892,88.36068726,-476.0678101,-921.267334,125.0018005,-433.7679443,-882.0324097,117.5735703,-503.6074219
-980.5839844,84.44182587,-751.5692139,-923.7009888,119.7968369,-796.5178833,-895.9862061,112.943306,-721.2485962,-968.6416626,88.39241791,-476.0538025,-921.2605591,124.986763,-433.7879944,-882.0581055,117.5741959,-503.6169739
-980.559021,84.43598175,-751.5814819,-923.6383057,119.7527313,-796.5246582,-895.9892578,112.9245987,-721.2196655,-968.6454468,88.38092804,-476.0654297,-921.2783813,125.0177841,-433.7891846,-882.0216064,117.5806503,-503.60672
-980.5632324,84.43938446,-751.5790405,-923.6325684,119.7800674,-796.5012207,-895.9951172,112.92173,-721.2355347,-968.6361084,88.37524414,-476.0661926,-921.2665405,125.0029755,-433.8189087,-882.0214844,117.5861435,-503.5993347
-980.5592041,84.43830109,-751.5823364,-923.692749,119.797142,-796.4822998,-895.9904785,112.9407196,-721.2288818,-968.6436157,88.36814117,-476.0468445,-921.2678833,125.0024414,-433.8111572,-882.0189819,117.5880737,-503.6166687
-980.5698242,84.43023682,-751.5671387,-923.6137695,119.7618866,-796.4508667,-896.0029907,112.9178925,-721.2130127,-968.6380615,88.36875916,-476.0522461,-921.2674561,125.0110626,-433.8004761,-882.0332031,117.5545273,-503.6053467
-980.5714111,84.44607544,-751.5611572,-923.6715698,119.822052,-796.512207,-896.0170288,112.9481354,-721.2105103,-968.6238403,88.36752319,-476.0562744,-921.2359009,125.0003052,-433.8150635,-882.0490112,117.5790634,-503.6256104
-980.5567017,84.46165466,-751.5587158,-923.6306152,119.8482132,-796.5629883,-896.0007935,112.9528885,-721.2103882,-968.6364746,88.37314606,-476.0445251,-921.2572632,125.0181122,-433.7938232,-882.0335693,117.5690308,-503.6443787
-980.5678711,84.46046448,-751.5629883,-923.6552734,119.7917633,-796.4667358,-895.9992676,112.9389343,-721.2175293,-968.6351929,88.36299133,-476.0505066,-921.2377319,125.0070267,-433.8179016,-881.996521,117.5718307,-503.641449
-980.5666504,84.45306396,-751.5454102,-923.6329346,119.8141327,-796.4694214,-896.020752,112.977211,-721.2022095,-968.6216431,88.3719101,-476.0281067,-921.2161255,124.9968109,-433.8128052,-882.0174561,117.558342,-503.6273499
-980.5579224,84.44573212,-751.5648193,-923.4777832,119.6774673,-796.5281372,-896.0109253,112.9780197,-721.2012939,-968.6269531,88.3687973,-476.0362244,-921.2009277,125.0005569,-433.7937012,-882.0388184,117.5510559,-503.6316223
-980.5740967,84.45237732,-751.5638428,-923.4174194,119.659668,-796.5366821,-896.0244751,112.9624786,-721.1931763,-968.6445313,88.35917664,-476.0379639,-921.2344971,125.0137177,-433.8078613,-882.0379028,117.5492477,-503.6460571
-980.5802002,84.46492767,-751.5557861,-923.6726685,119.8368988,-796.5084839,-896.0013428,112.9641953,-721.1921387,-968.6252441,88.36478424,-476.0467224,-921.2209473,125.0087433,-433.7874756,-882.0332642,117.5511398,-503.6428223
-980.5689697,84.47235107,-751.5594482,-923.4573364,119.7184753,-796.5652466,-896.0037842,112.9699936,-721.1972656,-968.6204224,88.3559494,-476.0378418,-921.2138672,124.9931259,-433.7926331,-882.0269775,117.5578461,-503.6439209
-980.5759277,84.47475433,-751.5487671,-923.645874,119.8589554,-796.4954224,-896.0024414,112.9627686,-721.2020264,-968.632019,88.36587524,-476.0271606,-921.2149658,124.9932709,-433.7841492,-882.0304565,117.5517197,-503.628418
-980.5440674,84.46417236,-751.5527344,-923.4377441,119.6797791,-796.5516357,-895.9824829,112.9713745,-721.1841431,-968.6146851,88.35928345,-476.0288391,-921.2184448,124.9824677,-433.771759,-882.0341797,117.5393524,-503.6245422
-980.5673218,84.4651947,-751.5528564,-923.4362793,119.677002,-796.5324707,-895.9938965,112.9801102,-721.1640625,-968.6443481,88.34072113,-476.0281982,-921.3674316,125.1729965,-433.3609314,-882.0406494,117.5318832,-503.6214905
-980.5462646,84.44273376,-751.5334473,-923.6511841,119.8619843,-796.4834595,-896.0009155,112.9770279,-721.1658325,-968.6424561,88.32680511,-476.0337524,-921.2351685,125.0041199,-433.7123413,-882.0685425,117.5104294,-503.6267395
-980.5839233,84.44932556,-751.5396729,-923.6136475,119.8282089,-796.4435425,-895.9876709,112.9734497,-721.1685791,-968.6713867,88.3321228,-476.0227966,-921.2163086,124.9954071,-433.7171021,-882.0609741,117.5329437,-503.6199341
-980.5651245,84.43437195,-751.5510254,-923.6094971,119.8205872,-796.4848022,-895.994751,112.9692993,-721.1726074,-968.6487427,88.33142853,-476.0285034,-921.225708,124.9884415,-433.7193909,-882.0397339,117.5349045,-503.6264954
-980.5732422,84.4584198,-751.5438232,-923.6000977,119.8373947,-796.473877,-896.0223999,112.9474792,-721.1439819,-968.6593018,88.3140564,-476.0353088,-921.2444458,124.9948959,-433.7110596,-882.06073,117.5067825,-503.6216736
-980.5715332,84.44942474,-751.5389404,-923.6147461,119.809082,-796.3999634,-895.993042,112.9286346,-721.1381226,-968.6430054,88.30409241,-476.0186462,-921.2271729,124.9814453,-433.7073669,-882.0476074,117.5345078,-503.6231689
-980.5559082,84.44528198,-751.529541,-923.4838867,119.6672363,-796.460083,-896.0005493,112.927887,-721.1377563,-968.6601563,88.30974579,-476.0065918,-921.2293701,124.97229,-433.7193604,-882.0378418,117.5106812,-503.6116028
-980.5627441,84.43578339,-751.5294189,-923.6533203,119.8218689,-796.3933105,-895.9851685,112.9366074,-721.1331787,-968.6573486,88.3037796,-476.0195007,-921.2527466,124.9840088,-433.7090759,-882.0689697,117.517067,-503.6252441
-980.5698853,84.44301605,-751.5273438,-923.675415,119.8238678,-796.3670654,-895.9677124,112.9360352,-721.1264648,-968.6661987,88.30465698,-476.0194702,-921.2199097,124.9960327,-433.721405,-882.0927734,117.51194,-503.6207275
-980.5848389,84.4309845,-751.52771,-923.654541,119.8113022,-796.4103394,-895.9924927,112.9362946,-721.1268921,-968.6726074,88.29548645,-476.0272522,-921.2401733,124.9922714,-433.73172,-882.1049194,117.5161667,-503.6305542
-980.5782471,84.43963623,-751.526123,-923.6865234,119.8308105,-796.350708,-895.9893188,112.9232025,-721.116272,-968.6625977,88.29234314,-476.0334167,-921.239502,124.9636841,-433.7487183,-882.0871582,117.509964,-503.6225586
-980.5812988,84.44298553,-751.5108643,-923.6091309,119.8238678,-796.3751831,-895.9732666,112.9344177,-721.1099243,-968.6695557,88.27014923,-476.0124207,-921.2276611,124.9595032,-433.7437134,-882.0945435,117.5251541,-503.6303101
-980.5783691,84.44464874,-751.5223389,-923.6132202,119.7996979,-796.3388672,-896.0093384,112.9411469,-721.1176758,-968.6767578,88.31478882,-476.0134888,-921.2200928,124.9780807,-433.7449036,-882.0719604,117.5023346,-503.6216125
-980.5695801,84.44229126,-751.5358887,-923.5975342,119.8271255,-796.3713379,-895.9903564,112.9236832,-721.1187134,-968.6676636,88.30463409,-476.0195923,-921.2310791,124.9655075,-433.7563477,-882.0748291,117.5084991,-503.6275024
-980.5657959,84.42357635,-751.5372314,-923.633728,119.7932587,-796.3379517,-895.9995728,112.935524,-721.1074829,-968.6674194,88.29434967,-476.0343323,-921.2531738,124.9677048,-433.7604675,-882.0915527,117.5139999,-503.6321716
-980.5718994,84.42555237,-751.5255737,-923.6717529,119.8407288,-796.4105225,-896.0039673,112.9200592,-721.102417,-968.6831055,88.29602051,-476.0186157,-921.2198486,124.9597168,-433.7573547,-882.1126709,117.5138855,-503.6468201
-980.5932007,84.43397522,-751.5136719,-923.7471313,119.8649826,-796.3997803,-896.0064697,112.9130783,-721.1003418,-968.6879883,88.30775452,-476.0102844,-921.2125244,124.9564362,-433.7800903,-882.1074219,117.5027313,-503.6492615
-980.5697632,84.4276123,-751.5271606,-923.6981812,119.8540955,-796.4022217,-896.0077515,112.9165344,-721.0916138,-968.6582031,88.294487,-476.0127563,-921.2216187,124.9814453,-433.7678223,-882.0881958,117.5152435,-503.6395569
-980.5580444,84.44384003,-751.5133667,-923.6589355,119.803978,-796.3342285,-895.9985962,112.9181137,-721.081665,-968.6765137,88.32287598,-476.0194092,-921.2091064,124.9721146,-433.7504578,-882.0512695,117.5099564,-503.6317444
-980.5508423,84.43636322,-751.5109863,-923.5661011,119.7759552,-796.3087158,-896.0025024,112.9184113,-721.0709229,-968.6727295,88.31052399,-476.016571,-921.1947021,124.9710236,-433.7563477,-882.0769653,117.5242462,-503.6126099
-980.5675049,84.43367004,-751.5036011,-923.637146,119.8228073,-796.3604736,-895.9922485,112.9111633,-721.0750122,-968.6662598,88.30567169,-476.0046082,-921.2005615,124.9838791,-433.7276611,-882.0748291,117.5219803,-503.6333618
-980.5719604,84.43683624,-751.4985962,-923.6633911,119.8166275,-796.3502197,-895.9921265,112.9197617,-721.0787354,-968.6688232,88.31038666,-476.0010071,-921.1782227,124.9816437,-433.7458496,-882.0679932,117.5322571,-503.6315002
-980.5823364,84.44970703,-751.5181274,-923.6879883,119.8601608,-796.3411865,-896.0061646,112.8942108,-721.0709229,-968.616333,88.30256653,-476.0269775,-921.166748,124.9869919,-433.7335815,-882.0776978,117.5261459,-503.6348572
-980.5853882,84.44810486,-751.5127563,-923.6761475,119.8444595,-796.3291016,-895.9928589,112.8988495,-721.0678101,-968.6574097,88.34394836,-476.0180664,-921.1793823,124.9972763,-433.7414551,-882.0595093,117.539299,-503.652832
-980.5878906,84.45957947,-751.503418,-923.6550903,119.8394852,-796.3668823,-896.0039673,112.8833008,-721.0461426,-968.6557617,88.33919525,-476.0097656,-921.1643066,125.0009918,-433.747406,-882.0476685,117.52771,-503.6557007
-980.5679321,84.4522934,-751.5023804,-923.628479,119.8203354,-796.3040771,-896.0227661,112.8783112,-721.0223389,-968.6242676,88.32928467,-476.0308838,-921.1413574,125.0178299,-433.7579651,-882.026123,117.5106812,-503.651825
-980.5778809,84.4331131,-751.5215454,-923.6328125,119.8128967,-796.3076782,-895.9971313,112.8707275,-721.020752,-968.6322021,88.34908295,-476.0082703,-921.1327515,125.0167313,-433.7703247,-882.0248413,117.5367355,-503.6379395
-980.56604,84.41791534,-751.5038452,-923.678833,119.8069077,-796.2891846,-896.0045166,112.8678513,-721.0386963,-968.6234741,88.35237885,-476.0196228,-921.112793,125.0237503,-433.7720032,-882.0221558,117.544342,-503.6601868
-980.5829468,84.44431305,-751.5070801,-923.6640625,119.807579,-796.2745972,-896.0095215,112.8692627,-721.0379028,-968.6235352,88.34724426,-476.0223083,-921.1185303,125.0273361,-433.7746277,-882.0288086,117.5311584,-503.6735229
-980.5891724,84.44503021,-751.4986572,-923.4749756,119.6524277,-796.3555908,-896.0258789,112.867981,-721.0343018,-968.6219482,88.34257507,-476.0212097,-921.131897,125.026619,-433.7482605,-882.039978,117.5352859,-503.674469
-980.5894775,84.42016602,-751.4981689,-923.4554443,119.6476898,-796.3037109,-896.0327148,112.8632431,-721.026123,-968.59729,88.33718872,-476.0312195,-921.1282349,125.0302582,-433.7532043,-882.0529175,117.5457535,-503.6533813
-980.572937,84.43221283,-751.491272,-923.4420776,119.6334839,-796.3275757,-896.0308228,112.8571625,-721.0117798,-968.602478,88.33547211,-476.0228882,-921.133667,125.0465317,-433.744873,-882.019043,117.538147,-503.6431885
-980.5610352,84.42719269,-751.4976196,-923.4610596,119.6670074,-796.3156128,-896.0472412,112.8624954,-720.9824829,-968.6037598,88.3445816,-476.0247498,-921.1358643,125.0531769,-433.7523193,-882.0245972,117.5408401,-503.6452026
-980.5612183,84.42649078,-751.4915161,-923.4381104,119.6447906,-796.289978,-896.046814,112.8498535,-720.9777222,-968.6236572,88.34964752,-476.0152893,-921.126709,125.0243759,-433.7668457,-882.0199585,117.54673,-503.6480103
-980.5811157,84.42826843,-751.4893799,-923.40625,119.6714783,-796.3212891,-896.0454712,112.8566132,-720.9666138,-968.6134033,88.34764099,-476.0333252,-921.1395264,125.0470047,-433.7608948,-882.0185547,117.5471954,-503.6465149
-980.5857544,84.42132568,-751.4854126,-923.4581909,119.6699829,-796.3167114,-896.0523071,112.8597717,-720.9869385,-968.6273804,88.34964752,-476.0246277,-921.1506958,125.039856,-433.7550354,-882.024231,117.5495224,-503.6686401
-980.5878906,84.43814087,-751.4869385,-923.4349976,119.6329803,-796.3078003,-896.0674438,112.8619232,-720.9724121,-968.6372681,88.36434937,-476.0263672,-921.1600952,125.0364685,-433.7764893,-882.024231,117.5470123,-503.6599426
-980.5632935,84.42211151,-751.4685669,-923.3795776,119.6445007,-796.2666626,-896.0653687,112.8482971,-720.9510498,-968.6244507,88.35120392,-476.0297546,-921.1553345,125.0571136,-433.7787781,-882.0109863,117.541748,-503.6760864
-980.5782471,84.42622375,-751.4708252,-923.3336182,119.6186523,-796.2730713,-896.064209,112.871727,-720.9421387,-968.6324463,88.36260986,-476.0335999,-921.1613159,125.0362167,-433.7718201,-882.0182495,117.5510559,-503.6800842
-980.5820923,84.43119049,-751.4680786,-923.3247681,119.6220856,-796.2672729,-896.0906372,112.8597641,-720.894043,-968.6299438,88.36363983,-476.0104675,-921.1361694,125.0430145,-433.764801,-882.0028687,117.540802,-503.6542664
-980.5736084,84.43517303,-751.4624023,-923.2731323,119.6400223,-796.2479858,-896.1143188,112.8738632,-720.8618164,-968.6196899,88.38601685,-476.005249,-921.1461792,125.0480347,-433.7579956,-882.0166626,117.527771,-503.6590576
-980.5771484,84.4355545,-751.444519,-923.2717896,119.6512985,-796.2075806,-896.133606,112.8987579,-720.8222656,-968.5991821,88.3800354,-475.9821167,-921.1386108,125.0600739,-433.7494202,-882.0053711,117.5409088,-503.6707764
-980.5719604,84.47121429,-751.4564819,-923.2763672,119.6862564,-796.2338867,-896.1499634,112.9040527,-720.8137207,-968.5744019,88.41125488,-475.9988098,-921.0770874,125.0637131,-433.7375488,-882.0189819,117.5595474,-503.6791992
-980.5566406,84.46990204,-751.4464111,-923.2614136,119.6737213,-796.2507324,-896.1516113,112.9286346,-720.8100586,-968.5627441,88.44854736,-476.011261,-921.0703125,125.0883408,-433.7311707,-881.96698,117.5787354,-503.6740723
-980.559082,84.48688507,-751.4624634,-923.2216797,119.6849747,-796.2584839,-896.1580811,112.9397278,-720.798645,-968.5372925,88.48166656,-475.9981689,-920.9911499,125.1229019,-433.7150879,-881.9400024,117.5990295,-503.690033
-980.5335693,84.51035309,-751.460022,-923.1724854,119.7108154,-796.2508545,-896.1525269,112.9566422,-720.8083496,-968.4926758,88.5331192,-476.0063782,-920.9701538,125.1867676,-433.699585,-881.9050293,117.6156845,-503.7038574
-980.5372314,84.50389099,-751.465332,-923.1424561,119.7264709,-796.2969971,-896.1464844,112.9731674,-720.8496704,-968.4838257,88.58426666,-476.008728,-920.9197388,125.1900406,-433.6973877,-881.8616943,117.6682663,-503.6907043
-980.5380249,84.53613281,-751.4664307,-923.1243896,119.753624,-796.3102417,-896.1269531,113.0171509,-720.8406372,-968.4852905,88.62503815,-475.9781494,-920.8886719,125.2552948,-433.666626,-881.845459,117.6964874,-503.6980286
-980.5287476,84.55728912,-751.4762573,-923.1154785,119.8183136,-796.3348999,-896.1209717,113.0296478,-720.8642578,-968.4642944,88.63796234,-475.9823608,-920.8355713,125.2787781,-433.6609802,-881.8335571,117.7251968,-503.6782532
-980.5300903,84.58062744,-751.4682007,-923.0510254,119.7950211,-796.3568726,-896.1139526,113.0685196,-720.8760376,-968.4622803,88.68048859,-475.9707642,-920.8178101,125.293663,-433.6513977,-881.7946777,117.7634964,-503.6658325
-980.5250244,84.59882355,-751.4785156,-923.3031006,119.9817505,-796.2918091,-896.1298828,113.075592,-720.8735352,-968.4473267,88.72764587,-475.9529114,-920.7825928,125.3534622,-433.6338501,-881.755249,117.7881775,-503.6800232
-980.4898071,84.59238434,-751.4973145,-923.321228,120.0412903,-796.3803711,-896.1173706,113.0966492,-720.8983765,-968.4281006,88.73496246,-475.9404602,-920.9389648,125.5150681,-433.23703,-881.7362061,117.8073349,-503.6643372
-980.4928589,84.59860229,-751.4929199,-923.2994995,120.0298996,-796.3478394,-896.1307373,113.0763779,-720.9093628,-968.4231567,88.77124023,-475.921814,-920.7579346,125.3803787,-433.572052,-881.6838989,117.7804642,-503.6480713
-980.4932861,84.5916748,-751.512207,-923.2883911,120.0071869,-796.3649292,-896.1173706,113.0821991,-720.8812866,-968.4075928,88.77046967,-475.9642639,-920.7548218,125.3962479,-433.5885925,-881.6889648,117.8108978,-503.6465759
-980.5007935,84.60644531,-751.5123901,-923.2905884,120.0432053,-796.3557739,-896.1321411,113.0763855,-720.8961792,-968.4118652,88.78646851,-475.9576721,-920.7445679,125.4056168,-433.5939026,-881.6740112,117.8278732,-503.6648254
-980.5044556,84.61425018,-751.5183716,-923.3239746,120.0519104,-796.3793335,-896.1306152,113.086441,-720.9102783,-968.4069824,88.78912354,-475.9701233,-920.7503662,125.4381027,-433.5980835,-881.6846924,117.8236237,-503.6771545
-980.4902954,84.5977478,-751.5089111,-923.2420654,119.9972229,-796.3778076,-896.1246338,113.0901108,-720.9181519,-968.3927612,88.80397034,-475.9491577,-920.7514038,125.453598,-433.6240234,-881.6604004,117.8150101,-503.683136
-980.4989624,84.59131622,-751.5170898,-923.2776489,120.0151443,-796.397522,-896.1196899,113.0739517,-720.9066162,-968.4217529,88.80031586,-475.9668884,-920.7271118,125.4250946,-433.6592407,-881.6633301,117.8070221,-503.6980896
-980.4974365,84.58572388,-751.4968872,-923.2878418,119.9993744,-796.3693848,-896.1350098,113.0613785,-720.902832,-968.4046021,88.76947784,-475.9714661,-920.7463379,125.4144135,-433.675293,-881.6716309,117.8117142,-503.7167358
-980.5023804,84.58548737,-751.5041504,-923.2770386,119.9785843,-796.3729248,-896.1298218,113.0761948,-720.9204102,-968.4251709,88.7956543,-475.9823303,-920.7512207,125.4248734,-433.6933289,-881.6884155,117.8001175,-503.737854
-980.5267944,84.58712769,-751.5046997,-923.3187866,119.9859695,-796.3796387,-896.1386108,113.0748291,-720.9158936,-968.4271851,88.78424072,-476.0097961,-920.7609863,125.4241409,-433.7189331,-881.6733398,117.7861481,-503.7312317
-980.5388794,84.57310486,-751.4966431,-923.3092651,119.9723434,-796.3619385,-896.1491699,113.0598145,-720.9135132,-968.4244995,88.7620697,-476.0089722,-920.7698364,125.4101181,-433.7441101,-881.690979,117.7907715,-503.7575073
-980.5350952,84.59107208,-751.4851074,-923.3084106,120.0021744,-796.4016113,-896.1566772,113.038147,-720.9056396,-968.4141235,88.74856567,-476.0334473,-920.7959595,125.3957214,-433.7521667,-881.7160034,117.7732544,-503.7698059
-980.5123291,84.57102966,-751.4966431,-923.3012085,119.9540482,-796.3745117,-896.1518555,113.0465088,-720.9074707,-968.4351807,88.75228882,-476.0428772,-920.8109131,125.4103012,-433.7746277,-881.7064819,117.7535934,-503.7757568
-980.5029297,84.5581665,-751.5004883,-923.3085327,119.9978485,-796.3833618,-896.1519775,113.0479431,-720.9053345,-968.4111328,88.75583649,-476.0514221,-920.7914429,125.3937454,-433.8282776,-881.7098999,117.7398834,-503.7910767
-980.5279541,84.56539154,-751.4927368,-923.2861328,119.9621124,-796.3824463,-896.1681519,113.040596,-720.9244995,-968.4036255,88.71750641,-476.0685425,-920.8173828,125.3756409,-433.8565674,-881.7214355,117.7603378,-503.8139038
-980.5230713,84.58110046,-751.4966431,-923.3092041,119.9738235,-796.3930664,-896.1737061,113.0548706,-720.920166,-968.4284668,88.72102356,-476.0589294,-920.8455811,125.3814468,-433.879364,-881.7178345,117.7386169,-503.8153381
-980.5308228,84.55875397,-751.5198975,-923.3273926,119.9362411,-796.3741455,-896.1987915,113.0627365,-720.9203491,-968.4398193,88.70619202,-476.0817871,-920.8442383,125.3826523,-433.8916931,-881.7467651,117.731308,-503.815033
-980.5469971,84.56317139,-751.5057983,-923.3282471,119.9005356,-796.3721313,-896.2165527,113.0495834,-720.8959351,-968.4486084,88.70629883,-476.0881348,-920.855896,125.3638077,-433.9085999,-881.7597046,117.7145386,-503.8338013
-980.5316772,84.5585556,-751.5078735,-923.2960815,119.9272995,-796.378418,-896.1989746,113.0373688,-720.9145508,-968.4243164,88.6996994,-476.0829773,-920.8495483,125.3572464,-433.9163208,-881.7290649,117.7263718,-503.8456726
-980.5150146,84.5447464,-751.5079956,-923.3099976,119.9328079,-796.3864746,-896.2059937,113.0530472,-720.9336548,-968.4359741,88.7049408,-476.1077576,-920.8619385,125.3702698,-433.9300232,-881.7380981,117.7282257,-503.8496704
-980.4972534,84.56609344,-751.5221558,-923.3204956,119.9384308,-796.4006348,-896.2070313,113.0512314,-720.9281616,-968.4383545,88.70175934,-476.097229,-920.8607178,125.380806,-433.9140625,-881.7388916,117.7342224,-503.836792
-980.5350342,84.58738708,-751.5177612,-923.3121948,119.9530106,-796.4145508,-896.2142944,113.0896072,-720.9572754,-968.4220581,88.69223785,-476.0971069,-920.887085,125.3810577,-433.917511,-881.7460938,117.7250519,-503.838501
-980.5146484,84.59269714,-751.5328369,-923.3473511,119.9963837,-796.4512329,-896.1821289,113.1023636,-720.9747314,-968.4434204,88.70627594,-476.0892334,-920.8693237,125.38237,-433.9179382,-881.7490845,117.7256165,-503.8539429
-980.5117798,84.59638977,-751.5274658,-923.3103027,119.9589386,-796.4348755,-896.218811,113.0955811,-720.9862061,-968.4373169,88.69808197,-476.1054077,-920.8840942,125.3891525,-433.9213257,-881.7424927,117.7344971,-503.8267822
-980.5164795,84.60413361,-751.5521851,-923.3156128,120.0134201,-796.5015869,-896.2029419,113.1124191,-720.9960327,-968.4449463,88.73052216,-476.0862427,-920.8707275,125.3781891,-433.9236145,-881.7202148,117.7641525,-503.8352356
-980.5002441,84.61029053,-751.5455322,-923.2848511,119.9657516,-796.460144,-896.2270508,113.1257629,-721.003479,-968.4199219,88.71399689,-476.0819092,-920.8735962,125.3768158,-433.9249573,-881.7382202,117.7535095,-503.831604
-980.4969482,84.61701202,-751.5654297,-923.3001709,119.9591446,-796.5248413,-896.2219849,113.1224365,-721.0210571,-968.4365234,88.70855713,-476.0913086,-920.8936768,125.3864136,-433.9095764,-881.7444458,117.7461624,-503.8172913
-980.4927368,84.61883545,-751.5596924,-923.2940674,119.9867477,-796.4968262,-896.2404175,113.1266098,-721.0193481,-968.4225464,88.72097778,-476.0821228,-920.8876343,125.3866806,-433.9103394,-881.7389526,117.7572403,-503.8257141
-980.5008545,84.6210556,-751.5673218,-923.2515259,119.9592209,-796.5635986,-896.2527466,113.152565,-721.038208,-968.4329224,88.72422791,-476.0747681,-920.8905029,125.4077225,-433.9284973,-881.755127,117.7504883,-503.8214111
-980.5101929,84.62159729,-751.5569458,-923.2982788,120.0012207,-796.5463257,-896.2509155,113.1505737,-721.0223389,-968.4332886,88.73537445,-476.0881653,-920.913208,125.383255,-433.9468689,-881.7321167,117.7530746,-503.8128967
-980.5117188,84.62841034,-751.5535278,-923.3226929,119.9953003,-796.5760498,-896.2536621,113.1678162,-721.0293579,-968.440979,88.74878693,-476.0789185,-920.913269,125.3929062,-433.9372864,-881.769165,117.7340546,-503.8435364
-980.517395,84.6385498,-751.5767822,-923.3034668,119.9995346,-796.5463867,-896.2481689,113.1848679,-721.0367432,-968.4399414,88.7559433,-476.0801086,-920.9120483,125.4150772,-433.9412231,-881.7640991,117.7507477,-503.8356628
-980.4949341,84.6275177,-751.5536499,-923.2855835,119.9448395,-796.5216675,-896.2319946,113.1922531,-721.0370483,-968.4379272,88.75730896,-476.0852051,-920.9051514,125.3950653,-433.9673157,-881.7573242,117.7610245,-503.8515015
-980.5022583,84.63343811,-751.5618286,-923.3045654,119.9836502,-796.5458374,-896.2285767,113.1699448,-721.0305786,-968.4422607,88.74549866,-476.1239319,-920.8984375,125.3953934,-433.9607849,-881.7566528,117.7583923,-503.84729
-980.4956055,84.62319946,-751.5554199,-923.2820435,119.9863052,-796.5541992,-896.237854,113.1749802,-721.0361328,-968.4481812,88.77653503,-476.0841675,-920.9172974,125.3929672,-433.9671021,-881.713562,117.7484512,-503.8348083
-980.5005493,84.64366913,-751.536438,-923.3272095,120.0279388,-796.5539551,-896.2571411,113.1957779,-721.0224609,-968.4390259,88.76130676,-476.096283,-920.9221191,125.4032822,-433.9408264,-881.7316284,117.7609482,-503.8334961
-980.5071411,84.63386536,-751.5449219,-923.3292236,119.955513,-796.5202637,-896.242981,113.2026749,-721.0164795,-968.4504395,88.78090668,-476.0804749,-920.9091797,125.3997192,-433.9655457,-881.7192383,117.7562027,-503.8379211
-980.5081177,84.6486969,-751.5507813,-923.3164063,119.9825592,-796.5491333,-896.2357788,113.1791916,-721.0292358,-968.4333496,88.74462891,-476.0844727,-920.9169312,125.4242477,-433.9538574,-881.7337646,117.7542419,-503.8403015
-980.4907837,84.63473511,-751.5559082,-923.2738037,120.0046997,-796.5758667,-896.2457886,113.1870422,-721.0181274,-968.4177246,88.7644577,-476.0772095,-920.9139404,125.4323959,-433.9284363,-881.7321777,117.7746429,-503.8108521
-980.4959717,84.64125824,-751.560791,-923.2974243,120.00914,-796.559082,-896.248291,113.2019882,-721.0281372,-968.4040527,88.77242279,-476.1054077,-920.9133301,125.4312897,-433.9282837,-881.7334595,117.7746201,-503.8175964
-980.498291,84.63980865,-751.5401611,-923.2948608,119.9706726,-796.5376587,-896.244812,113.1906815,-721.0143433,-968.4174805,88.76535034,-476.0752869,-920.9042358,125.42453,-433.924408,-881.7351074,117.7602844,-503.8302307
-980.4908447,84.64936829,-751.5527344,-923.2731934,119.9521408,-796.5079346,-896.2426147,113.1971664,-721.0098877,-968.4315186,88.78297424,-476.0744629,-920.9130859,125.4367447,-433.9153748,-881.7230225,117.7836838,-503.8188477
-980.505188,84.64376831,-751.5250244,-923.3032227,119.9834595,-796.5466919,-896.2246704,113.1768875,-721.0224609,-968.4213257,88.76599884,-476.0809021,-920.8932495,125.4356613,-433.9102783,-881.7525635,117.7967072,-503.805481
-980.505127,84.63793182,-751.5343018,-923.3300781,119.9835205,-796.512207,-896.2247314,113.2105103,-721.0376587,-968.4217529,88.75869751,-476.0719299,-920.8838501,125.4300842,-433.8960266,-881.744873,117.7739029,-503.8217163
-980.4802246,84.64128876,-751.5510254,-923.2999268,120.00354,-796.5256958,-896.2232666,113.2120514,-721.0475464,-968.4041748,88.77861023,-476.0541077,-920.8830566,125.4281616,-433.9118958,-881.7526245,117.7749329,-503.8064575
-980.5013428,84.64465332,-751.5454102,-923.3088379,119.9760437,-796.5171509,-896.1980591,113.2260437,-721.057312,-968.4179688,88.7813797,-476.0749512,-920.8673706,125.4181519,-433.9042053,-881.7644653,117.7811584,-503.8052673
-980.4904785,84.64974213,-751.5425415,-923.2990112,120.0512772,-796.5666504,-896.2177734,113.2250366,-721.0471802,-968.3911743,88.77526093,-476.0704956,-920.8798218,125.4379578,-433.9065857,-881.7388916,117.8004074,-503.7962646
-980.4990845,84.63306427,-751.5339355,-923.2741699,120.0184402,-796.5571899,-896.2000122,113.205986,-721.0415039,-968.4204102,88.76489258,-476.0446472,-920.8684692,125.4309082,-433.8991699,-881.7557373,117.7839127,-503.7955933
-980.4962769,84.65011597,-751.5507202,-923.3228149,120.0385056,-796.5352173,-896.2022705,113.2109451,-721.039917,-968.3956909,88.78575897,-476.0559082,-920.8808594,125.4460449,-433.8829041,-881.7598267,117.7941055,-503.7915344
-980.4984131,84.65266418,-751.52771,-923.2836914,120.0092697,-796.5201416,-896.1953125,113.2171402,-721.0331421,-968.4437256,88.79205322,-476.058197,-920.8654175,125.4279251,-433.9004822,-881.7509155,117.8071442,-503.7893372
-980.4987793,84.65544891,-751.5394897,-923.2806396,120.0027847,-796.4818726,-896.1981812,113.2130432,-721.036499,-968.4297485,88.78555298,-476.0450439,-920.8494263,125.4294128,-433.9003296,-881.7435303,117.8145905,-503.7851563
-980.4818726,84.64878082,-751.5319214,-923.3018188,119.9979019,-796.5272827,-896.1900635,113.2025299,-721.0222778,-968.4193115,88.77505493,-476.0440979,-920.8756104,125.4302826,-433.878418,-881.7596436,117.7853928,-503.8003235
-980.5045166,84.6418457,-751.5264893,-923.2922363,120.0292206,-796.5292969,-896.1894531,113.2000275,-721.0131226,-968.3960571,88.78489685,-476.0346069,-920.8804932,125.427475,-433.8821106,-881.7406006,117.7914734,-503.7695007
-980.4691772,84.6531601,-751.5255127,-923.2772827,119.9962234,-796.5123901,-896.2040405,113.1986542,-721.0160522,-968.4346313,88.77732086,-476.0211487,-920.8782349,125.4244537,-433.8618164,-881.7537231,117.8138351,-503.7684937
-980.498291,84.64306641,-751.5181885,-923.2780762,120.0350647,-796.5454102,-896.2064209,113.2121201,-721.0239258,-968.4103394,88.76261139,-476.032135,-920.8712769,125.4391785,-433.8300781,-881.7611084,117.7981262,-503.7698059
-980.4711914,84.64573669,-751.5169067,-923.335083,120.0556259,-796.5385132,-896.2151489,113.1941681,-721.0293579,-968.4358521,88.77851868,-476.0266418,-920.8845215,125.4349136,-433.8569641,-881.7630615,117.7961273,-503.7718201
-980.4887695,84.6452179,-751.5254517,-923.3286743,120.0419464,-796.5037231,-896.2076416,113.2016525,-721.0048218,-968.4229736,88.75798798,-476.019104,-920.8853149,125.4244385,-433.8534241,-881.7506104,117.7966537,-503.7593079
-980.4869995,84.64138031,-751.5248413,-923.2437744,119.9986267,-796.5057983,-896.2144165,113.1909256,-721.0189209,-968.4428711,88.77566528,-476.0229187,-920.8947144,125.4177933,-433.8579407,-881.7576294,117.8061981,-503.7481079
-980.4820557,84.64814758,-751.5344238,-923.1022949,119.8506317,-796.5773315,-896.1867676,113.2214355,-721.0189819,-968.4506836,88.76431274,-476.0176697,-920.8964233,125.4223099,-433.8601685,-881.7181396,117.7873611,-503.7449341
-980.4907837,84.64745331,-751.5335693,-923.2836304,120.0506058,-796.5181274,-896.1797485,113.2099915,-721.0383911,-968.4255371,88.73844147,-476.0308533,-920.894043,125.4392776,-433.8414307,-881.7417603,117.8128891,-503.7471313
-980.4864502,84.67115021,-751.5542603,-923.3095703,120.0246124,-796.5254517,-896.199707,113.2395096,-721.0502319,-968.4229736,88.76898193,-476.0276184,-920.9020386,125.4260483,-433.8558655,-881.7363892,117.8117218,-503.7461243
-980.5114136,84.66233063,-751.5535889,-923.2965088,120.0531158,-796.4963989,-896.1891479,113.2479172,-721.0393066,-968.4310303,88.76102448,-476.0229797,-920.9039307,125.4312363,-433.8469849,-881.7460327,117.7946854,-503.734314
-980.4903564,84.67331696,-751.5484009,-923.2910767,120.061882,-796.5219116,-896.177002,113.2501297,-721.0418091,-968.4161987,88.77297974,-476.0266724,-920.8949585,125.4290695,-433.8190308,-881.75,117.8121185,-503.7114868
-980.4994507,84.67142487,-751.5510254,-923.2456055,120.0662766,-796.5605469,-896.1536255,113.2508316,-721.0241089,-968.4297485,88.77957916,-476.0002441,-920.8887939,125.4335022,-433.8344727,-881.7138062,117.8183365,-503.7054138
-980.4893188,84.68665314,-751.5527954,-923.2811279,120.0896759,-796.5429688,-896.161499,113.258049,-721.0261841,-968.4042969,88.78333282,-476.0075073,-920.8946533,125.4348068,-433.8166809,-881.7172852,117.8350296,-503.6989136
-980.479126,84.68287659,-751.5391235,-923.2846069,120.0792465,-796.5407715,-896.1311646,113.2391968,-721.0318604,-968.4185791,88.78501892,-476.0169067,-920.8813477,125.4344101,-433.7980042,-881.7324829,117.8300858,-503.6980896
-980.4603271,84.69471741,-751.5441895,-923.222168,120.1093979,-796.5490723,-896.1293945,113.2632065,-721.0261841,-968.4315186,88.77803802,-475.9973755,-920.8883667,125.4294739,-433.7798462,-881.7163086,117.8624039,-503.6773376
-980.4748535,84.70371246,-751.5427246,-923.203064,120.0908661,-796.4880371,-896.1178589,113.253952,-721.0269165,-968.4085693,88.79265594,-476.0034485,-920.8654175,125.4520187,-433.7789307,-881.7404175,117.8432007,-503.6708374
-980.4610596,84.68118286,-751.5396118,-923.2335815,120.1003189,-796.5050659,-896.1159058,113.2559738,-721.0140991,-968.4160156,88.81995392,-475.9813232,-920.8582153,125.4269409,-433.7921448,-881.7224731,117.8645248,-503.6611328
-980.4581909,84.68385315,-751.5223999,-923.2711792,120.1017914,-796.4959106,-896.1005859,113.2469635,-721.019165,-968.4049683,88.82108307,-475.9738159,-920.8598022,125.4537506,-433.7579346,-881.6918945,117.8478775,-503.6559448
-980.4701538,84.67784882,-751.5343018,-923.0220337,119.9372025,-796.5378418,-896.1187134,113.2652893,-720.9822388,-968.4172363,88.81492615,-475.9903259,-920.87323,125.4503403,-433.7631836,-881.6820679,117.8454666,-503.6329346
-980.4385376,84.67789459,-751.5145264,-923.2366943,120.0970764,-796.4765625,-896.0980835,113.2593002,-720.9769287,-968.3978271,88.81336212,-475.9878845,-920.8590698,125.4510651,-433.7391663,-881.6953125,117.8634949,-503.6446838
-980.444458,84.69854736,-751.5255127,-923.2484131,120.0992661,-796.456543,-896.0949097,113.2288742,-720.9854126,-968.4522705,88.8638916,-475.9239197,-920.8681641,125.4609299,-433.7433167,-881.7096558,117.8487244,-503.6252441
-980.4653931,84.70115662,-751.5151367,-923.263916,120.1330109,-796.4866333,-896.0771484,113.2530518,-720.9795532,-968.3825684,88.81881714,-475.964386,-920.8713989,125.4506226,-433.7358704,-881.6821289,117.8744278,-503.6260376
-980.4310913,84.69458771,-751.5240479,-923.1985474,120.0943604,-796.4504395,-896.0629883,113.2441406,-720.9825439,-968.3889771,88.8318634,-475.9583435,-920.8577271,125.4629593,-433.7107544,-881.6879883,117.8680038,-503.6141663
-980.447998,84.7052002,-751.5258179,-923.2063599,120.1018677,-796.447876,-896.0714722,113.2683716,-720.9813232,-968.4033813,88.82670593,-475.9636536,-920.8778687,125.4473572,-433.7227783,-881.6932373,117.8664551,-503.6029663
-980.4431152,84.72342682,-751.526062,-923.2075806,120.1273499,-796.4418335,-896.0617065,113.2770691,-720.9910278,-968.4160156,88.83672333,-475.9665222,-920.8743896,125.4463882,-433.7232971,-881.687561,117.8677292,-503.6154175
-980.4373779,84.71144104,-751.5379028,-923.2528687,120.1361389,-796.4370117,-896.0666504,113.2850952,-720.9775391,-968.4169312,88.82292175,-475.9570313,-920.8740234,125.4441986,-433.7044067,-881.6583252,117.8465958,-503.5763245
-980.4385986,84.70760345,-751.5297852,-923.0112305,119.9628372,-796.5064697,-896.0751953,113.2745056,-720.9655151,-968.404541,88.82225037,-475.9693298,-920.8892212,125.4571762,-433.7023926,-881.6849976,117.8709793,-503.5890198
-980.4476318,84.72465515,-751.5377197,-923.2676392,120.1418762,-796.4147949,-896.0680542,113.2434006,-720.9679565,-968.4019165,88.82209015,-475.9634705,-920.8630981,125.4460907,-433.7116089,-881.7131958,117.858963,-503.5770874
-980.4490967,84.7292099,-751.5233765,-923.0169067,119.9709244,-796.465271,-896.0662231,113.2331696,-720.9588623,-968.394104,88.80632019,-475.961792,-920.8731079,125.4487686,-433.7018127,-881.6828613,117.8588028,-503.5872192
-980.4335327,84.73557281,-751.5039063,-923.2387085,120.164711,-796.4442749,-896.0773926,113.2377396,-720.9864502,-968.4087524,88.80197906,-475.9624023,-920.8853149,125.4344101,-433.6957397,-881.6820068,117.8603134,-503.5763855
-980.4371338,84.73446655,-751.5189209,-923.2208252,120.1563492,-796.4316406,-896.074707,113.2452011,-720.953125,-968.4056396,88.81473541,-475.9448853,-920.8760986,125.43116,-433.6937866,-881.6781006,117.8601227,-503.5609436
-980.434021,84.72176361,-751.5105591,-923.2640381,120.1923904,-796.4083252,-896.0704346,113.2601776,-720.9529419,-968.4016113,88.80358124,-475.9602661,-920.8668823,125.4326172,-433.6769104,-881.6847534,117.8706894,-503.5618286
-980.4360962,84.72091675,-751.5106812,-923.2514648,120.1911469,-796.4420776,-896.0524292,113.244072,-720.9542236,-968.383728,88.795578,-475.9545288,-920.8624268,125.4265366,-433.6907654,-881.6845093,117.8774414,-503.5448303
-980.442688,84.7325592,-751.5118408,-923.0680542,120.0193939,-796.4446411,-896.0761719,113.2686691,-720.9449463,-968.4006348,88.80867767,-475.9367371,-920.8746948,125.4371185,-433.6611938,-881.6856689,117.854538,-503.547821
-980.4619751,84.7434082,-751.5056152,-923.253418,120.2283783,-796.4482422,-896.0542603,113.2597198,-720.9411011,-968.409668,88.80899048,-475.9424133,-920.8664551,125.4184341,-433.6734009,-881.685791,117.8604584,-503.5512695
-980.4334717,84.73764038,-751.4993286,-923.2437134,120.2104797,-796.413269,-896.057373,113.2419739,-720.9413452,-968.4064331,88.79949951,-475.9345093,-920.8642578,125.4146805,-433.6626892,-881.6713257,117.8769226,-503.5404968
-980.4447632,84.73881531,-751.4910278,-923.2171631,120.1963348,-796.4251099,-896.0414429,113.2466507,-720.9348145,-968.4146729,88.79415894,-475.9396973,-920.8815308,125.3915253,-433.6834717,-881.6732178,117.8348236,-503.5315552
-980.4244385,84.73435974,-751.5046387,-923.2313843,120.2257614,-796.4276733,-896.0438843,113.260025,-720.9345093,-968.3946533,88.78546143,-475.9550171,-920.8726807,125.4103851,-433.6611938,-881.6799927,117.8531952,-503.5300598
-980.4262695,84.74246216,-751.5065308,-923.2527466,120.2262497,-796.418457,-896.0454712,113.2655258,-720.9373169,-968.3914185,88.77206421,-475.9631348,-920.8823853,125.4080887,-433.6690979,-881.664978,117.8275909,-503.5385742
-980.4398193,84.73975372,-751.5018921,-923.0053711,120.0575638,-796.4854736,-896.0375977,113.2700272,-720.94104,-968.4098511,88.78321075,-475.9532166,-920.9040527,125.4018936,-433.694458,-881.6776733,117.8485565,-503.5435791
-980.4417114,84.76390839,-751.5090942,-923.2496338,120.2847672,-796.4341431,-896.0496826,113.2620087,-720.9475708,-968.3789673,88.78313446,-475.9594727,-920.8825073,125.3825531,-433.7121277,-881.6923828,117.8463364,-503.5394287
-980.4359741,84.75749207,-751.4901123,-923.2401123,120.2725372,-796.4678345,-896.0506592,113.2740326,-720.9354858,-968.4022827,88.77547455,-475.96521,-920.9116211,125.3843231,-433.6871948,-881.6738892,117.8568344,-503.54245
-980.4302368,84.74517059,-751.5014038,-923.2263794,120.288208,-796.4572754,-896.0373535,113.2623825,-720.9359131,-968.3823853,88.77071381,-475.9441528,-920.9049072,125.3967514,-433.6650391,-881.6838989,117.8608704,-503.5348206
-980.4005127,84.7425766,-751.5031738,-923.1665039,120.222641,-796.4211426,-896.0397339,113.2619934,-720.9318237,-968.4152222,88.78617096,-475.9641418,-920.9342041,125.3990326,-433.6858215,-881.6740723,117.8547363,-503.5403748
-980.4297485,84.7574234,-751.5012207,-923.2243652,120.243042,-796.4435425,-896.0275879,113.2580643,-720.9355469,-968.3911743,88.76792908,-475.9515381,-920.9165039,125.3787384,-433.6820984,-881.6947021,117.8660202,-503.5277405
-980.4194336,84.75009918,-751.4884644,-923.062561,120.0712891,-796.4634399,-896.0322876,113.2553253,-720.9507446,-968.3984985,88.75981903,-475.9482117,-920.9441528,125.3951569,-433.6806946,-881.713501,117.8405304,-503.5283203
-980.4396973,84.76776886,-751.4997559,-923.2808228,120.2425232,-796.3974609,-896.0157471,113.2709961,-720.9311523,-968.4022827,88.75392914,-475.9594116,-920.9619751,125.3706436,-433.6832581,-881.7037354,117.8434525,-503.5101624
-980.4180908,84.7517395,-751.4933472,-923.2363892,120.2680511,-796.4083862,-896.0238037,113.2636108,-720.9261475,-968.3800049,88.75421906,-475.9594116,-920.9609985,125.3884201,-433.6564636,-881.72052,117.8610687,-503.4989929
-980.4293823,84.76741028,-751.4926147,-923.2192383,120.2001419,-796.3953247,-896.0247803,113.2579346,-720.9246826,-968.3792725,88.74266052,-475.960144,-920.960083,125.3769226,-433.6654053,-881.7196045,117.8462524,-503.4883423
-980.4110718,84.74903107,-751.5009766,-923.1990356,120.250351,-796.4372559,-896.0106201,113.2362442,-720.9135132,-968.3899536,88.74355316,-475.9531555,-920.9749146,125.3825531,-433.6374207,-881.7036133,117.8447113,-503.4870911
-980.4191895,84.75279236,-751.4750977,-923.2144165,120.2453918,-796.395874,-896.0231323,113.2390366,-720.9276733,-968.4019165,88.73630524,-475.9596863,-920.9643555,125.392952,-433.6183777,-881.7286987,117.8557281,-503.4909668
-980.4105225,84.75052643,-751.4869995,-923.2355957,120.2427292,-796.3894043,-896.0108032,113.2219315,-720.906311,-968.3986816,88.72808075,-475.9678955,-920.9873047,125.3942947,-433.6158447,-881.7282104,117.8417511,-503.4968567
-980.4024658,84.73523712,-751.4727173,-923.2670288,120.2638779,-796.3826904,-896.008606,113.2239914,-720.8910522,-968.399292,88.70613861,-475.969635,-920.9716797,125.3678436,-433.6336365,-881.7272949,117.8333664,-503.4947205
-980.420105,84.74494934,-751.461731,-923.2883301,120.2906113,-796.3928833,-895.9856567,113.2296066,-720.9103394,-968.3986816,88.72329712,-475.9525452,-921.1534424,125.5604248,-433.2337341,-881.7278442,117.8454056,-503.5020447
-980.4142456,84.74266815,-751.4642944,-923.2783813,120.2222748,-796.2928467,-895.9780273,113.2136917,-720.9032593,-968.3845215,88.70632172,-475.9629517,-921.0187378,125.3866348,-433.5502319,-881.7352295,117.8418121,-503.4888611
-980.4188232,84.73649597,-751.4754639,-923.3128662,120.2384109,-796.3120728,-896.001709,113.202301,-720.8925781,-968.4088745,88.72015381,-475.9514465,-921.0235596,125.3455658,-433.5767517,-881.7277832,117.8276291,-503.4793396
-980.428833,84.74462891,-751.4650879,-923.276001,120.1823196,-796.2769165,-896.0074463,113.2237244,-720.8843994,-968.4307251,88.71540833,-475.9599304,-921.0098877,125.3655014,-433.5755005,-881.7456665,117.8308029,-503.4781494
-980.4274292,84.70618439,-751.4549561,-923.1099243,120.0416641,-796.3193359,-895.9946289,113.1757813,-720.8912964,-968.4257813,88.68341827,-475.9548035,-921.0454102,125.3193588,-433.5934753,-881.7522583,117.8339157,-503.4902344
-980.432312,84.71057892,-751.4472046,-923.1447754,120.0345917,-796.3148804,-896.008728,113.1828079,-720.9128418,-968.4263916,88.68084717,-475.9488525,-921.0553589,125.3263321,-433.5717163,-881.7828369,117.8360214,-503.4943542
-980.4417725,84.72197723,-751.4356079,-923.194519,120.0420685,-796.3220215,-896.0042725,113.1800003,-720.8968506,-968.4384155,88.6583786,-475.971283,-921.0601807,125.3149872,-433.5710754,-881.8048706,117.8337021,-503.4810181
-980.4286499,84.70307922,-751.4540405,-923.2133179,120.0468292,-796.2772827,-896.0071411,113.1708221,-720.8752441,-968.4367065,88.64199829,-475.9865112,-921.0645752,125.2958832,-433.5658569,-881.7833862,117.8114166,-503.477478
-980.4432983,84.70072937,-751.4124146,-923.208313,119.9692764,-796.2295532,-896.0321655,113.1437607,-720.8425903,-968.4750366,88.65326691,-475.973114,-921.0654297,125.2769623,-433.599884,-881.765686,117.8017731,-503.471283
-980.4244385,84.67215729,-751.4219971,-923.2120361,119.9861145,-796.2440186,-896.0220337,113.1317291,-720.8535156,-968.4425049,88.63837433,-475.9864502,-921.0817871,125.2693939,-433.5917969,-881.7998047,117.7928314,-503.4672241
-980.4370728,84.69445801,-751.3959351,-923.2479858,119.9766846,-796.2349243,-896.0205688,113.1236725,-720.8448486,-968.4523315,88.60680389,-476.0053711,-921.0927124,125.2341843,-433.6429749,-881.7988892,117.8101196,-503.4564514
-980.4469604,84.67838287,-751.411438,-923.2664795,119.9688187,-796.2185059,-896.024231,113.1313324,-720.8580322,-968.4807129,88.62397766,-475.9649353,-921.2670288,125.412323,-433.2437439,-881.8217163,117.8197861,-503.4688416
-980.4446411,84.67131042,-751.4235229,-923.2758179,119.9982376,-796.2637329,-896.0354004,113.138588,-720.857605,-968.4575195,88.61077881,-475.9930725,-921.1241455,125.2602463,-433.5901794,-881.8204956,117.7908783,-503.4554443
-980.4553223,84.66306305,-751.4256592,-923.2842407,119.9776459,-796.2609863,-896.0631104,113.1070175,-720.8705444,-968.4723511,88.60061646,-475.9839172,-921.1429443,125.2465057,-433.5968018,-881.8551636,117.7846909,-503.4832764
-980.4646606,84.66447449,-751.4244385,-923.2804565,119.9639816,-796.2954102,-896.0427246,113.0942993,-720.881897,-968.4805908,88.58773041,-475.9765625,-921.1503296,125.2103119,-433.6035767,-881.8497314,117.7812424,-503.4867249
-980.449707,84.65489197,-751.4122314,-923.2601929,119.9428329,-796.2705078,-896.0532837,113.0946274,-720.854126,-968.4710083,88.58355713,-475.9961548,-921.159668,125.2116776,-433.5928955,-881.8269043,117.7805939,-503.4742737
-980.4718018,84.64334106,-751.4190674,-923.2862549,119.9036865,-796.2674561,-896.0643311,113.074707,-720.8883667,-968.460083,88.56533051,-476.0078125,-921.164917,125.2090149,-433.5886536,-881.8433838,117.7700729,-503.4587708
-980.4602661,84.65765381,-751.4150391,-923.2445068,119.9065475,-796.2722778,-896.0720825,113.0716248,-720.8667603,-968.4862671,88.56737518,-476.0023499,-921.159668,125.2127991,-433.5871582,-881.8649292,117.7739334,-503.4805908
-980.4664307,84.65237427,-751.4098511,-923.2635498,119.8921356,-796.2056885,-896.0661011,113.0863876,-720.8614502,-968.4762573,88.57234192,-476.0109863,-921.3165283,125.3554001,-433.2433167,-881.8792114,117.7854462,-503.4742126
-980.460144,84.64989471,-751.4143066,-923.2806396,119.8987045,-796.2277832,-896.0745239,113.1056976,-720.8557129,-968.4857788,88.55541229,-476.0004883,-921.1646118,125.1791077,-433.5943909,-881.8759155,117.7860184,-503.4720154
-980.4631958,84.65518951,-751.4078979,-923.277771,119.9139175,-796.2283936,-896.0596313,113.0849686,-720.8693848,-968.4770508,88.57070923,-476.0083618,-921.1950073,125.2105484,-433.6044922,-881.8728638,117.7798615,-503.4651489
-980.47052,84.65546417,-751.3927002,-923.2619019,119.9430771,-796.2307129,-896.0791016,113.0886993,-720.8772583,-968.4845581,88.56346893,-476.0111389,-921.1898193,125.1999359,-433.5865784,-881.8894653,117.7819214,-503.4799805
-980.4614868,84.6395874,-751.4089966,-923.2860107,119.9102554,-796.2508545,-896.0717773,113.0747528,-720.8739014,-968.477417,88.5386734,-476.0347595,-921.2107544,125.1981506,-433.6047668,-881.8859253,117.7701263,-503.4798279
-980.4847412,84.64628601,-751.4108276,-923.2784424,119.9007339,-796.2329102,-896.0830688,113.0782089,-720.8870239,-968.4785767,88.54646301,-476.0245667,-921.203186,125.1955872,-433.625,-881.8824463,117.7797318,-503.4755249
-980.4920044,84.63712311,-751.428833,-923.2907715,119.8711319,-796.2697144,-896.0822754,113.0588837,-720.9042969,-968.4730225,88.54246521,-476.047699,-921.2113647,125.1580658,-433.644165,-881.8881836,117.7705002,-503.4802856
-980.4884033,84.62095642,-751.4294434,-923.28302,119.8717957,-796.2497559,-896.1015015,113.0555038,-720.9056396,-968.4869385,88.53784943,-476.0328674,-921.2011719,125.1584854,-433.6447144,-881.8899536,117.7407227,-503.4806519
-980.4906616,84.63175964,-751.4347534,-923.2514038,119.870163,-796.2564087,-896.0823364,113.0485077,-720.9109497,-968.4751587,88.52862549,-476.052124,-921.2039185,125.1480789,-433.6358032,-881.9229126,117.7566452,-503.4916687
-980.4911499,84.62454224,-751.4396973,-923.2974243,119.853363,-796.2659302,-896.1071167,113.0547943,-720.9289551,-968.4891357,88.51413727,-476.0684204,-921.2090454,125.1453247,-433.6766663,-881.9262085,117.744194,-503.4916687
-980.4985962,84.62613678,-751.4282837,-923.2854614,119.8617554,-796.2506714,-896.1016846,113.0538406,-720.9296875,-968.5180664,88.52659607,-476.0477905,-921.211792,125.1270981,-433.691864,-881.9257813,117.7340088,-503.4929199
-980.4963379,84.61323547,-751.4373169,-923.3045654,119.8207932,-796.2523804,-896.1071167,113.0418091,-720.9287109,-968.5249634,88.53056335,-476.0278015,-921.2200928,125.1177139,-433.686615,-881.9378052,117.7365799,-503.4901733
-980.5102539,84.62313843,-751.4263916,-923.3349609,119.8476028,-796.2618408,-896.102356,113.0462418,-720.9242554,-968.5184937,88.50062561,-476.0649414,-921.2235718,125.1170578,-433.6950378,-881.934082,117.7267075,-503.4932861
-980.5172119,84.60369873,-751.4364014,-923.333313,119.8272324,-796.2520752,-896.119873,113.0312195,-720.9205322,-968.5145874,88.49672699,-476.0656433,-921.2396851,125.0740051,-433.716095,-881.9661255,117.7380219,-503.515625
-980.5023804,84.59809113,-751.4453735,-923.378418,119.817894,-796.2625122,-896.1216431,113.0048752,-720.9176025,-968.5075684,88.47100067,-476.0469971,-921.2507324,125.0710144,-433.71875,-881.9806519,117.7274628,-503.5083008
-980.5007324,84.59365845,-751.4360352,-923.3632813,119.776619,-796.2539673,-896.1246338,112.9779053,-720.9155884,-968.5402832,88.47476196,-476.0547791,-921.2661743,125.0655136,-433.7114868,-881.9529419,117.7051544,-503.5070496
-980.5074463,84.58478546,-751.4314575,-923.4042358,119.7939911,-796.2982788,-896.1357422,112.9794617,-720.9331665,-968.5179443,88.45669556,-476.0586548,-921.2617188,125.0629196,-433.6912231,-881.9645996,117.703743,-503.5022278
-980.5266113,84.58033752,-751.430481,-923.4088745,119.8087387,-796.2590942,-896.1260376,112.994133,-720.9178467,-968.5407104,88.47002411,-476.0362244,-921.2648926,125.0495071,-433.7144775,-881.9631348,117.7090607,-503.4976807
-980.5280151,84.58216095,-751.4373779,-923.4424438,119.8007278,-796.2599487,-896.1289673,112.9806442,-720.9307861,-968.5498657,88.46286011,-476.0467834,-921.269165,125.0300217,-433.7194519,-881.9713135,117.7021637,-503.514679
-980.5333252,84.57433319,-751.4431152,-923.4076538,119.7868729,-796.2869263,-896.171936,112.9538956,-720.9276733,-968.5513916,88.46903229,-476.0578613,-921.2591553,125.0192642,-433.7196045,-882.013916,117.6953888,-503.52005
-980.5307617,84.5582428,-751.4209595,-923.43396,119.7636185,-796.2443237,-896.1507568,112.9566727,-720.9260864,-968.5385132,88.46239471,-476.0766296,-921.2815552,125.0151901,-433.707428,-882.0061646,117.6914673,-503.5141602
-980.5186768,84.55779266,-751.4376221,-923.4105225,119.7454376,-796.2340088,-896.1643066,112.9561691,-720.9283447,-968.527832,88.4469986,-476.0873718,-921.447998,125.2107086,-433.3008118,-881.994751,117.7019424,-503.4926147
-980.5301514,84.54667664,-751.4309692,-923.4805908,119.7187195,-796.2425537,-896.1693726,112.9132843,-720.9215698,-968.5743408,88.45719147,-476.0538635,-921.2918701,125.0297546,-433.6492615,-882.0140991,117.7052917,-503.4875488
-980.5371704,84.52544403,-751.4453125,-923.447998,119.7153397,-796.2435913,-896.1793823,112.9053879,-720.928772,-968.5501709,88.42111969,-476.0713501,-921.3080444,125.0289612,-433.6306763,-882.0077515,117.6777802,-503.4852295
-980.5479126,84.5250473,-751.4193726,-923.4891357,119.6866455,-796.2341309,-896.1629028,112.8786469,-720.956665,-968.5737305,88.44287872,-476.0552673,-921.2956543,125.0211105,-433.631134,-882.0307007,117.6961365,-503.5031738
-980.5633545,84.5291214,-751.4211426,-923.487854,119.6953278,-796.2333984,-896.18396,112.903183,-720.9242554,-968.5915527,88.42420959,-476.0545654,-921.3414917,125.0252991,-433.6249695,-882.0424194,117.6950531,-503.4944763
-980.5633545,84.50330353,-751.4162598,-923.5328369,119.643898,-796.2213745,-896.2017212,112.8796387,-720.9379883,-968.586731,88.42430115,-476.0510254,-921.319519,125.0147629,-433.6280823,-882.0932617,117.679718,-503.5036621
-980.5785522,84.49571228,-751.4269409,-923.5510254,119.6400528,-796.1966553,-896.2330933,112.8585739,-720.9076538,-968.5987549,88.41639709,-476.0473328,-921.3309326,125.0109177,-433.6139832,-882.0780029,117.6676178,-503.4920349
-980.5762939,84.49133301,-751.4117432,-923.536377,119.6087036,-796.1790161,-896.213562,112.8528214,-720.8974609,-968.6054077,88.39259338,-476.0428772,-921.3428345,124.995491,-433.6213684,-882.0678101,117.6671295,-503.474762
-980.5834961,84.45249176,-751.4337769,-923.5754395,119.5972061,-796.1641846,-896.2304077,112.8311691,-720.8833618,-968.6259766,88.38197327,-476.0271301,-921.3306885,124.9642563,-433.6375122,-882.098999,117.6617508,-503.4876099
-980.6032715,84.47027588,-751.4188843,-923.600708,119.5822067,-796.1782227,-896.2668457,112.7834244,-720.8956909,-968.6228638,88.37854767,-476.0445862,-921.3354492,124.9514465,-433.6483154,-882.1269531,117.6711121,-503.4867249
-980.6088257,84.44857788,-751.423645,-923.6604614,119.5430145,-796.1490479,-896.2813721,112.7997284,-720.8777466,-968.6334229,88.37627411,-476.0553589,-921.3326416,124.9426346,-433.6813049,-882.1253662,117.6608276,-503.4778442
-980.6290283,84.44737244,-751.4215088,-923.6915283,119.5356674,-796.1522217,-896.2799072,112.7563629,-720.8928223,-968.6685791,88.37309265,-476.050354,-921.3657227,124.9379425,-433.6781921,-882.121521,117.655571,-503.4829712
-980.6270142,84.43978882,-751.4269409,-923.6675415,119.4879761,-796.145874,-896.2890015,112.7624893,-720.8831787,-968.6307373,88.34317017,-476.0574341,-921.3756714,124.9148941,-433.6789551,-882.1325073,117.627388,-503.4977417
-980.6359253,84.41693878,-751.416687,-923.7502441,119.4666748,-796.1078491,-896.2970581,112.7447891,-720.8897705,-968.6342163,88.3237381,-476.0634155,-921.3745117,124.9058838,-433.6868896,-882.1358643,117.6239319,-503.5065918
-980.6345825,84.40566254,-751.4396973,-923.7631226,119.4412766,-796.1382446,-896.3222046,112.7127838,-720.9089355,-968.6425171,88.30856323,-476.0731812,-921.4157104,124.9065018,-433.7047729,-882.1473999,117.6280518,-503.5094299
-980.6670532,84.39361572,-751.4389648,-923.7620239,119.4014282,-796.1012573,-896.3502808,112.687706,-720.9022217,-968.6581421,88.32123566,-476.0768127,-921.4057007,124.8805389,-433.7313232,-882.1669312,117.6168976,-503.5091858
-980.6603394,84.38114166,-751.4356079,-923.7553711,119.3869781,-796.0969849,-896.3547363,112.6691513,-720.8796997,-968.6713257,88.31443024,-476.0501709,-921.427063,124.8865128,-433.6784973,-882.1744995,117.6043243,-503.5038452
-980.673584,84.35860443,-751.4411011,-923.8631592,119.3674164,-796.0941162,-896.3891602,112.6612701,-720.8590698,-968.6693115,88.28894043,-476.0734253,-921.4328613,124.8785095,-433.6798096,-882.1925049,117.6057892,-503.4993591
-980.6794434,84.35015869,-751.4385986,-923.8720703,119.3581696,-796.0587158,-896.3883057,112.6307755,-720.8514404,-968.6931152,88.29469299,-476.0490723,-921.4369507,124.8607025,-433.6838989,-882.2133789,117.6100998,-503.47229
-980.6707153,84.32505035,-751.4451294,-923.8469238,119.345993,-796.0900879,-896.4110107,112.6089172,-720.8519897,-968.6985474,88.29057312,-476.0458984,-921.4498291,124.8542938,-433.675415,-882.2209473,117.5836639,-503.4772644
-980.6745605,84.31139374,-751.4385376,-923.9263916,119.295166,-796.069458,-896.4265137,112.6045761,-720.8585205,-968.7011719,88.27798462,-476.0513306,-921.4345703,124.8445892,-433.6655579,-882.218689,117.6207733,-503.4733276
-980.6925659,84.28933716,-751.4567871,-923.9443359,119.2951584,-796.0348511,-896.4514771,112.5818024,-720.8704224,-968.6994019,88.271492,-476.0343933,-921.4544678,124.8231735,-433.644165,-882.2700806,117.6100998,-503.4768372
-980.7179565,84.28548431,-751.4509888,-923.9736328,119.2712936,-796.0891724,-896.4694824,112.5860596,-720.8532715,-968.7061768,88.26042938,-476.035675,-921.4538574,124.8176498,-433.6403198,-882.2788086,117.6109238,-503.4772644
-980.7197876,84.27565765,-751.4439087,-924.020813,119.2695541,-796.0682373,-896.4727783,112.5546494,-720.8527222,-968.7153931,88.26041412,-476.0461731,-921.4614868,124.8336182,-433.6316223,-882.2805786,117.6028976,-503.4714661
-980.7125854,84.2692337,-751.4728394,-924.0038452,119.2630005,-796.067688,-896.4916992,112.5619736,-720.8526001,-968.7172241,88.26947021,-476.0334167,-921.5013428,124.8236465,-433.6238403,-882.3015747,117.5816193,-503.4749146
-980.7294922,84.25221252,-751.4446411,-924.0465088,119.230278,-796.0430908,-896.5194092,112.5342484,-720.8583984,-968.7363281,88.27635193,-476.0343323,-921.4766235,124.7818527,-433.6585693,-882.3013306,117.602684,-503.4749146
-980.699707,84.23775482,-751.4620361,-924.0120239,119.1995544,-796.0484619,-896.5322266,112.5142365,-720.8583984,-968.7254639,88.25881195,-476.0545044,-921.4993286,124.7984314,-433.6204224,-882.2885742,117.5834351,-503.47052
-980.7096558,84.23805237,-751.4447021,-924.0840454,119.2076721,-796.0701904,-896.5266724,112.5104218,-720.8447876,-968.7147827,88.24652863,-476.0379028,-921.5131226,124.8071136,-433.6409302,-882.3031006,117.5924606,-503.4537659
-980.7194824,84.25193024,-751.4701538,-924.0889282,119.2090759,-796.0443726,-896.5235596,112.5305328,-720.8378296,-968.7241821,88.24875641,-476.0491638,-921.5249023,124.8011703,-433.6009521,-882.2794189,117.6007462,-503.4505005
-980.7359619,84.24178314,-751.4594116,-924.0620728,119.2028809,-796.0363159,-896.5196533,112.522522,-720.8577881,-968.7387695,88.26664734,-476.0265198,-921.678772,124.9883118,-433.203186,-882.3109131,117.6122131,-503.4518127
-980.7317505,84.23105621,-751.458252,-924.1260986,119.1919174,-796.0432739,-896.5408325,112.5070648,-720.8381958,-968.7346191,88.2647171,-476.0292664,-921.668457,124.9777069,-433.212738,-882.3066406,117.6103058,-503.4428101
-980.7184448,84.20939636,-751.4521484,-924.1351318,119.2096863,-796.0543823,-896.5229492,112.5069199,-720.8632813,-968.7336426,88.24046326,-476.0313721,-921.6712646,124.9586487,-433.201416,-882.2911987,117.6082306,-503.4422607
-980.7348633,84.21252441,-751.4522705,-924.1716919,119.2172775,-796.0460815,-896.5302734,112.5224152,-720.8706055,-968.7215576,88.25112915,-476.0317383,-921.6842651,124.9749603,-433.2023621,-882.2999268,117.6069031,-503.4393921
-980.727417,84.23069,-751.4493408,-924.1358032,119.2277603,-796.0680542,-896.5432129,112.515625,-720.8810425,-968.7370605,88.25717926,-476.020813,-921.7003784,124.9879532,-433.1624451,-882.2850952,117.6037369,-503.4292603
-980.7221069,84.20922852,-751.4485474,-924.1569824,119.2102051,-796.0704956,-896.5331421,112.5205994,-720.8625488,-968.7161865,88.23229218,-476.0602417,-921.6952515,124.9530487,-433.1768494,-882.3148804,117.6008759,-503.4319458
-980.729126,84.2126236,-751.4633789,-924.1919556,119.1992264,-796.0878296,-896.5332031,112.5066452,-720.8756104,-968.7523193,88.25708008,-476.0359192,-921.5597534,124.8055801,-433.5445862,-882.3028564,117.6137543,-503.4400024
-980.7356567,84.21736145,-751.4621582,-924.1615601,119.198616,-796.0870361,-896.53302,112.52034,-720.8756104,-968.743042,88.23429108,-476.0519714,-921.559021,124.8054733,-433.5455933,-882.3174438,117.6066132,-503.4338684
-980.7337646,84.21570587,-751.4530029,-924.1296387,119.2064743,-796.0863647,-896.5142212,112.514595,-720.8803711,-968.7415771,88.2365799,-476.0473633,-921.7388916,124.9978485,-433.1960449,-882.3297119,117.5800705,-503.4239197
-980.7373047,84.21349335,-751.4760742,-924.1379395,119.1891785,-796.0716553,-896.5286255,112.526001,-720.8839111,-968.743103,88.2416153,-476.0379333,-921.7028198,124.9695206,-433.2347107,-882.3181763,117.6000061,-503.436615
-980.7277832,84.20713043,-751.4597168,-924.1231079,119.1896057,-796.0870972,-896.515625,112.5270233,-720.8918457,-968.737793,88.22805786,-476.0476379,-921.5685425,124.8226166,-433.5459595,-882.3096924,117.604332,-503.4428711
-980.7250977,84.22084045,-751.4700928,-924.0714722,119.1901321,-796.0732422,-896.5009766,112.5244141,-720.9007568,-968.7490234,88.24385834,-476.0485229,-921.7562866,124.9861679,-433.1952209,-882.3052979,117.6066513,-503.4354553
-980.736084,84.23799896,-751.4561157,-924.1011353,119.2083893,-796.0853882,-896.4990234,112.526886,-720.9038696,-968.7324829,88.23330688,-476.0639343,-921.5892944,124.8217163,-433.529541,-882.312439,117.5974503,-503.4272461
-980.7432861,84.23213196,-751.4777222,-924.1553955,119.170639,-796.0650635,-896.5169678,112.5170288,-720.8983765,-968.7520142,88.22850037,-476.0705566,-921.6038208,124.8083878,-433.5584717,-882.3356934,117.6000061,-503.4328003
-980.74646,84.22006226,-751.4669189,-924.123291,119.2039719,-796.0577393,-896.5238647,112.4867172,-720.878479,-968.7506104,88.2350235,-476.0549316,-921.7541504,124.9619675,-433.1997986,-882.3045654,117.5829391,-503.427063
-980.7246094,84.20406342,-751.4626465,-924.1027222,119.1854935,-796.0614014,-896.5344238,112.4974136,-720.8772583,-968.7288818,88.22367096,-476.0405273,-921.7295532,124.9600372,-433.206604,-882.3065186,117.6005173,-503.4320068
-980.7359619,84.22607422,-751.4633789,-924.1309814,119.18647,-796.0823975,-896.5291748,112.5091629,-720.8788452,-968.7208252,88.23288727,-476.0473938,-921.5922852,124.8083344,-433.5443115,-882.296875,117.6137924,-503.4301147
-980.7189941,84.22576904,-751.4639893,-924.085144,119.202919,-796.0657349,-896.5283813,112.495491,-720.8798828,-968.7426147,88.24581909,-476.0303955,-921.7432861,124.9752197,-433.1972351,-882.3069458,117.6010971,-503.4238586
-980.7415161,84.22174835,-751.4749146,-924.1279907,119.2018204,-796.0731201,-896.5220337,112.5018692,-720.8900146,-968.7214355,88.2246933,-476.0417175,-921.7571411,124.9897537,-433.1803894,-882.3108521,117.618042,-503.4351196
-980.7476196,84.22080231,-751.4691772,-924.1139526,119.1963959,-796.0690918,-896.5101929,112.5004807,-720.8972168,-968.7365723,88.23666382,-476.0384216,-921.5758057,124.8094254,-433.5444946,-882.3242798,117.6004257,-503.4266357
-980.7442627,84.22884369,-751.4658203,-924.1047363,119.2298965,-796.0904541,-896.5144043,112.5137405,-720.8925781,-968.710144,88.22636414,-476.0628357,-921.5905762,124.8366623,-433.543335,-882.2936401,117.5974655,-503.4172974
-980.7236938,84.21374512,-751.4676514,-924.1011963,119.1760635,-796.0587769,-896.4825439,112.5012817,-720.8910522,-968.7354736,88.23448944,-476.0467224,-921.5771484,124.8400345,-433.5496521,-882.319397,117.6015091,-503.4246216
-980.7269287,84.21338654,-751.4685669,-924.0979004,119.1809692,-796.0645752,-896.4840088,112.5135727,-720.8837891,-968.7112427,88.23564148,-476.0491943,-921.7202759,124.9854584,-433.20401,-882.3027344,117.6088409,-503.4328308
-980.7213135,84.21289825,-751.4712524,-924.102356,119.2136307,-796.0952759,-896.5045166,112.4910507,-720.8981934,-968.7477417,88.23734283,-476.0309448,-921.7283325,124.9896469,-433.1863403,-882.2971191,117.6124954,-503.4308777
-980.7299194,84.23321533,-751.4522095,-924.0792847,119.181633,-796.0742798,-896.4954224,112.5047531,-720.8978882,-968.7297974,88.23921967,-476.0469666,-921.5820923,124.7935791,-433.5626221,-882.309082,117.5925064,-503.4241333
-980.7391968,84.20836639,-751.4710083,-924.0580444,119.166008,-796.0766602,-896.4896851,112.5012512,-720.8900757,-968.7211914,88.24320984,-476.0281372,-921.5782471,124.7986679,-433.5483398,-882.291626,117.584549,-503.4382629
-980.7322388,84.23813629,-751.4725342,-924.1015015,119.1752243,-796.1002197,-896.5042114,112.5036774,-720.8968506,-968.729126,88.24227905,-476.0496216,-921.5687866,124.7965164,-433.5701294,-882.2937622,117.5860596,-503.4349365
-980.729187,84.23490906,-751.4824219,-924.0797729,119.1668777,-796.114624,-896.4968262,112.5143585,-720.8962402,-968.7277832,88.24138641,-476.0409851,-921.7200317,124.9719467,-433.222229,-882.2821045,117.5938492,-503.4303894
-980.7286377,84.22979736,-751.4894409,-924.0836182,119.1926804,-796.0731812,-896.5066528,112.5091324,-720.9185791,-968.7233887,88.23987579,-476.0421753,-921.7185669,124.9917297,-433.2225647,-882.2805176,117.5845337,-503.4379578
-980.7238159,84.24362183,-751.4859619,-924.0895386,119.1728821,-796.0930176,-896.5172729,112.5209198,-720.9169312,-968.7003174,88.23775482,-476.0567322,-921.7227173,124.9850159,-433.2044373,-882.3007202,117.6186829,-503.4183655
-980.7290039,84.25026703,-751.4893799,-924.1081543,119.1866837,-796.1027222,-896.527832,112.5114212,-720.9091797,-968.710022,88.24190521,-476.0516663,-921.7518921,124.9969406,-433.1975708,-882.2811279,117.5925064,-503.4317017
-980.7303467,84.217453,-751.46875,-924.1116943,119.2143555,-796.1392212,-896.5187988,112.5389252,-720.9107666,-968.7177124,88.25006104,-476.033905,-921.7387695,124.9878616,-433.2177429,-882.2930908,117.6152954,-503.4357605
-980.7282104,84.22245026,-751.4916382,-924.0797119,119.188652,-796.1227417,-896.513855,112.526207,-720.914917,-968.7341309,88.22809601,-476.0445557,-921.760437,125.0028381,-433.1904297,-882.2820435,117.6174774,-503.4226074
-980.7377319,84.23529053,-751.4928589,-924.1137695,119.1820602,-796.1276855,-896.5357666,112.5290909,-720.9280396,-968.7080078,88.20924377,-476.0716858,-921.6057739,124.8142166,-433.5635681,-882.2947998,117.604538,-503.4178162
-980.7416382,84.23789215,-751.4818115,-924.131897,119.2086029,-796.1223145,-896.5230103,112.5316238,-720.9281006,-968.7434692,88.22590637,-476.0611572,-921.7401733,124.9725266,-433.217865,-882.2698364,117.6182556,-503.4165039
-980.7505493,84.24861145,-751.4966431,-924.0968018,119.22258,-796.1256104,-896.5355835,112.544754,-720.9193726,-968.7210693,88.22098541,-476.0568237,-921.6135254,124.8175812,-433.561554,-882.296936,117.5998459,-503.4256897
-980.7315063,84.24346161,-751.489624,-924.1253662,119.2188187,-796.1387329,-896.5267944,112.554657,-720.9515991,-968.7166138,88.21146393,-476.0635376,-921.6333618,124.8111115,-433.5758057,-882.2818604,117.6160126,-503.4239197
-980.7232666,84.25005341,-751.4855957,-924.1039429,119.2009277,-796.1096802,-896.5230713,112.5392838,-720.9297485,-968.7211304,88.22684479,-476.0663452,-921.6571045,124.7877274,-433.5970459,-882.3009644,117.6311874,-503.4076843
-980.7208252,84.25622559,-751.494812,-924.1213989,119.2138901,-796.1450806,-896.5187378,112.5656433,-720.9415283,-968.7275391,88.24642181,-476.0484009,-921.6314697,124.8021164,-433.5675659,-882.2900391,117.6141968,-503.3937988
-980.7319336,84.2488327,-751.4957886,-924.1203003,119.2437439,-796.1490479,-896.526001,112.5752792,-720.9317017,-968.7416992,88.24312592,-476.0378418,-921.6748657,124.7872391,-433.574646,-882.2801514,117.6009293,-503.4058533
-980.7208252,84.24415588,-751.4918823,-924.0918579,119.250061,-796.164856,-896.5106812,112.5710297,-720.9423828,-968.739563,88.24851227,-476.0622864,-921.815979,124.9631958,-433.2111816,-882.317749,117.6130142,-503.4026794
-980.7301636,84.27259064,-751.4928589,-924.0892334,119.233902,-796.1553345,-896.5233154,112.569664,-720.9639282,-968.725708,88.24336243,-476.0644226,-921.6644897,124.8081665,-433.5608521,-882.3147583,117.6150055,-503.3961792
-980.7298584,84.26203156,-751.5057373,-924.1154785,119.249321,-796.1507568,-896.5273438,112.5797195,-720.9649658,-968.7329712,88.24033356,-476.0556641,-921.6749268,124.7849045,-433.5838318,-882.2955322,117.6066132,-503.4030457
-980.7093506,84.26889801,-751.512085,-924.1172485,119.2511597,-796.1694336,-896.5230713,112.5780487,-720.9485474,-968.7088013,88.22366333,-476.072113,-921.6716309,124.8006134,-433.5726929,-882.3016357,117.6348114,-503.4006042
-980.7311401,84.26702118,-751.4945679,-924.0678711,119.2460938,-796.1655884,-896.5204468,112.5635834,-720.9599609,-968.715271,88.22779083,-476.0827637,-921.678833,124.7760696,-433.5689087,-882.2965088,117.5886459,-503.3967285
-980.7223511,84.26099396,-751.5066528,-924.0893555,119.2206421,-796.1751099,-896.5272827,112.5755005,-720.9474487,-968.7303467,88.23646545,-476.0823975,-921.819397,124.9524002,-433.2342834,-882.2896118,117.6072922,-503.4006042
-980.7333984,84.26789093,-751.5064697,-924.0754395,119.2206573,-796.1889648,-896.5479126,112.5843658,-720.9522095,-968.7397461,88.23646545,-476.0823364,-921.6885986,124.7652435,-433.6185913,-882.2889404,117.6054916,-503.4143677
-980.7372437,84.27705383,-751.4976807,-924.0040894,119.2181778,-796.1756592,-896.5319214,112.5857544,-720.9576416,-968.7128906,88.21303558,-476.101593,-921.6900024,124.7739944,-433.6365356,-882.2704468,117.6098328,-503.4271851
-980.7147827,84.26686096,-751.50177,-924.0476074,119.2585144,-796.1697998,-896.5272827,112.5764008,-720.9368286,-968.701355,88.21622467,-476.0857849,-921.7012329,124.7743378,-433.6341248,-882.282959,117.6142502,-503.4213867
-980.7006836,84.26779938,-751.4890747,-924.0476685,119.2528152,-796.1655273,-896.5303955,112.5866928,-720.9489746,-968.7030029,88.24028015,-476.104187,-921.694458,124.7983475,-433.614624,-882.2491455,117.6160126,-503.4031677
-980.7176514,84.28979492,-751.4905396,-924.0479126,119.2741547,-796.1870728,-896.5310669,112.5969391,-720.956665,-968.7025146,88.23961639,-476.0993958,-921.6864624,124.7910309,-433.6538391,-882.2584229,117.6189117,-503.4184265
-980.7164307,84.29695892,-751.4815674,-924.0553589,119.2640076,-796.1610107,-896.4920044,112.5856247,-720.9423218,-968.6767578,88.23617554,-476.0935669,-921.6651001,124.7897034,-433.6743469,-882.2104492,117.6224442,-503.4278259
-980.7233887,84.29555511,-751.4859619,-924.0583496,119.2688599,-796.1802979,-896.4797974,112.5937119,-720.9352417,-968.6784668,88.25566101,-476.1029968,-921.6672974,124.7714615,-433.693512,-882.2328491,117.5942154,-503.4300537
-980.7189941,84.30026245,-751.4920044,-924.0403442,119.2798004,-796.1603394,-896.486145,112.6099777,-720.9515991,-968.6871338,88.2522049,-476.0919495,-921.6498413,124.7794647,-433.7006836,-882.2290649,117.6154938,-503.42276
-980.7149658,84.29724121,-751.494873,-924.0365601,119.2656403,-796.1618042,-896.4993286,112.6047821,-720.9358521,-968.6917725,88.27580261,-476.1042175,-921.6619263,124.8058548,-433.6950073,-882.2160034,117.6177063,-503.4086609
-980.7023315,84.29547119,-751.4993896,-924.0344238,119.2400131,-796.1358643,-896.4865723,112.6087112,-720.9277954,-968.680542,88.26797485,-476.1100769,-921.6534424,124.7939911,-433.7050476,-882.1841431,117.6128845,-503.4143066
-980.6934204,84.30660248,-751.5046997,-923.9639893,119.2319565,-796.135498,-896.4780884,112.5956268,-720.9401855,-968.6913452,88.28610229,-476.0851746,-921.6263428,124.8012924,-433.7047119,-882.2078857,117.6108627,-503.432251
-980.6879883,84.28885651,-751.4922485,-923.9786987,119.2971649,-796.1589355,-896.4761353,112.59655,-720.9190674,-968.6757813,88.27457428,-476.0952759,-921.6420898,124.7986603,-433.70755,-882.203186,117.612648,-503.414856
-980.6995239,84.28823853,-751.5046387,-923.9907837,119.2972946,-796.1654053,-896.4765625,112.5828476,-720.9319458,-968.6616211,88.27442169,-476.1134949,-921.5899048,124.7914734,-433.7200012,-882.1994629,117.6078796,-503.4292603
-980.682373,84.30499268,-751.4892578,-923.9597778,119.2709503,-796.1397095,-896.4775391,112.5811691,-720.9257813,-968.6884766,88.27812195,-476.113739,-921.6199951,124.7770309,-433.7425232,-882.1973267,117.6027756,-503.4273682
-980.6990967,84.29611969,-751.4758911,-923.9598999,119.2981339,-796.1220093,-896.4553833,112.5653,-720.9158325,-968.6743774,88.26461029,-476.1150513,-921.6085815,124.7993698,-433.7138977,-882.1903687,117.6057968,-503.432373
-980.7106323,84.30358124,-751.4802856,-923.984436,119.2834702,-796.1288452,-896.4396973,112.580513,-720.8898315,-968.6803589,88.26285553,-476.1207581,-921.6205444,124.7945633,-433.7461243,-882.1884155,117.6237335,-503.4417725
-980.7045288,84.31264496,-751.4775391,-923.9744873,119.2683716,-796.119812,-896.4481201,112.5591583,-720.9060669,-968.6764526,88.27042389,-476.1020203,-921.6439209,124.805069,-433.7277832,-882.1543579,117.6118851,-503.4404602
-980.7060547,84.31718445,-751.4786377,-923.9762573,119.2929077,-796.1120605,-896.4674072,112.5703354,-720.8908081,-968.6599731,88.27125549,-476.1108093,-921.6239624,124.7773209,-433.7458801,-882.1550293,117.6081772,-503.4329529
-980.6949463,84.32530212,-751.4907227,-923.9501343,119.2815628,-796.1154785,-896.4389648,112.5626678,-720.8910522,-968.6357422,88.26332092,-476.1254578,-921.6162109,124.7752304,-433.754425,-882.168335,117.5937042,-503.4217529
-980.689209,84.30943298,-751.49646,-923.9708862,119.2936935,-796.1316528,-896.4490356,112.5758743,-720.8852539,-968.6431274,88.25946808,-476.1323242,-921.7799683,124.9608307,-433.3432617,-882.1088257,117.6078949,-503.4201965
-980.6948242,84.30918121,-751.4868774,-923.9854126,119.3078461,-796.1137085,-896.423645,112.5749969,-720.8925171,-968.663208,88.26296997,-476.1325073,-921.6386719,124.8087311,-433.7113037,-882.1416626,117.6221008,-503.4212341
-980.7086182,84.30727386,-751.4856567,-923.9261475,119.286911,-796.0981445,-896.4291992,112.5596848,-720.8902588,-968.6573486,88.26014709,-476.1245728,-921.8016968,124.9743195,-433.335907,-882.1508789,117.6077499,-503.4221802
-980.6945801,84.3296051,-751.4868164,-923.9056396,119.3367844,-796.1101685,-896.4180298,112.5809097,-720.876709,-968.6456909,88.25147247,-476.134613,-921.6721191,124.8085403,-433.697998,-882.1542358,117.6184921,-503.3957214
-980.6881714,84.32395172,-751.4807129,-923.9429932,119.3356781,-796.0700684,-896.425293,112.551918,-720.8924561,-968.6621704,88.27325439,-476.1155396,-921.805481,124.9898834,-433.3439331,-882.1339722,117.5947876,-503.3783569
-980.6831055,84.32300568,-751.472168,-923.920105,119.296257,-796.1020508,-896.425415,112.55793,-720.8692627,-968.6469727,88.26027679,-476.1299744,-921.69104,124.8005981,-433.6762695,-882.1156006,117.6106644,-503.377655
-980.6916504,84.32132721,-751.4782715,-923.958313,119.2865295,-796.0808105,-896.4202271,112.5510025,-720.8800659,-968.6532593,88.26387787,-476.1055298,-921.6720581,124.7988968,-433.6634827,-882.1391602,117.6272125,-503.3821106
-980.7166748,84.31539154,-751.4622803,-923.9199219,119.2899475,-796.088562,-896.4289551,112.5324783,-720.8848877,-968.6790161,88.28896332,-476.0873413,-921.6929321,124.8026733,-433.6236572,-882.1184692,117.6298676,-503.3658447
-980.7020264,84.33073425,-751.4770508,-923.8922119,119.2992096,-796.0861816,-896.4364014,112.5650406,-720.8804321,-968.6549683,88.26095581,-476.114502,-921.6837158,124.8133011,-433.6386719,-882.147644,117.6297836,-503.3582764
-980.6893311,84.30963898,-751.4713135,-923.8908691,119.303009,-796.0963745,-896.4347534,112.5718231,-720.8638306,-968.6904297,88.26543427,-476.0891113,-921.6870117,124.7847366,-433.6282043,-882.1799316,117.6285629,-503.3675232
-980.6980591,84.31774139,-751.4815063,-923.9146729,119.3013611,-796.1116333,-896.4509277,112.5401917,-720.8759766,-968.6831665,88.26003265,-476.0992432,-921.8666992,124.9718399,-433.2559204,-882.1781006,117.6262665,-503.3399963
-980.6906738,84.31648254,-751.4749146,-923.9569092,119.3105621,-796.1160889,-896.4498901,112.5872421,-720.8817139,-968.6865234,88.26430511,-476.092041,-921.8591309,124.9595795,-433.2750244,-882.1815796,117.6360474,-503.3395691
-980.6847534,84.31320953,-751.4726563,-923.9894409,119.3212738,-796.1088867,-896.4605713,112.5652847,-720.8861694,-968.6619263,88.25296783,-476.0718079,-921.7063599,124.8002167,-433.5892639,-882.182312,117.6328964,-503.3439636
-980.6939697,84.30966949,-751.4822998,-923.9661865,119.3062592,-796.1184692,-896.4724121,112.5708237,-720.8944702,-968.6794434,88.2612915,-476.068634,-921.8722534,124.9748535,-433.2077026,-882.1802979,117.648613,-503.3195496
-980.6882935,84.29398346,-751.479187,-923.9846802,119.3060608,-796.1019897,-896.4678955,112.576889,-720.8899536,-968.6868286,88.24641418,-476.0660706,-921.8908691,124.9496307,-433.2021484,-882.1958618,117.6543121,-503.2962341
-980.7161255,84.3041687,-751.4745483,-923.9812012,119.2825775,-796.0515137,-896.4755249,112.5871964,-720.869751,-968.6832886,88.23770142,-476.0691833,-921.9047241,124.9604111,-433.1948242,-882.201355,117.6492844,-503.2912292
-980.7016602,84.29588318,-751.4723511,-923.9859619,119.2778549,-796.0631104,-896.5009766,112.5773697,-720.8692017,-968.706665,88.26042938,-476.0507202,-921.9028931,124.9579697,-433.1655273,-882.2069092,117.6333847,-503.2738342
-980.7128906,84.29286957,-751.4821167,-924.0073853,119.3171692,-796.1224976,-896.4954224,112.5590897,-720.8839722,-968.7056274,88.2349472,-476.0493774,-921.7570801,124.7840042,-433.5350952,-882.2115479,117.6424179,-503.2865906
-980.7199707,84.28371429,-751.4801636,-923.9786377,119.2842484,-796.1148682,-896.4852905,112.5700226,-720.883606,-968.7033691,88.24742889,-476.0328369,-921.9112549,124.949234,-433.1800842,-882.2298584,117.6431885,-503.3081055
-980.7146606,84.28462982,-751.4754028,-924.0341797,119.3140869,-796.12146,-896.4960327,112.5788574,-720.8929443,-968.6954346,88.25077057,-476.0497437,-921.7442627,124.7763824,-433.5426636,-882.229126,117.6577072,-503.2904053
-980.708313,84.28903198,-751.4851685,-924.0383301,119.2668228,-796.0949707,-896.4961548,112.5708008,-720.8803711,-968.6981812,88.2388382,-476.0518188,-921.9074097,124.9529953,-433.1723022,-882.211731,117.6482239,-503.2944336
-980.7141113,84.27594757,-751.4726563,-924.03479,119.2847137,-796.0935669,-896.4858398,112.5544662,-720.8903198,-968.6911011,88.24131012,-476.0588684,-921.9055176,124.9578781,-433.1991882,-882.2196045,117.6451874,-503.2612915
-980.7014771,84.2720871,-751.4636841,-924.0300293,119.2839737,-796.0864868,-896.4803467,112.5654297,-720.897522,-968.7182617,88.24629211,-476.0406189,-921.9055786,124.9485016,-433.2137146,-882.2127075,117.6225586,-503.2852783
-980.7050781,84.28812408,-751.484314,-924.0197144,119.3129272,-796.1010742,-896.4781494,112.5776825,-720.8935547,-968.7102051,88.23796844,-476.0548096,-921.8899536,124.9537964,-433.1986084,-882.2319946,117.618576,-503.3173828
-980.7141113,84.29137421,-751.4726563,-924.0090332,119.2816391,-796.1015625,-896.4605713,112.5779724,-720.8861084,-968.6991577,88.24259949,-476.0704346,-921.8914185,124.9570389,-433.2262573,-882.1801147,117.637558,-503.3159485
-980.7131958,84.30548859,-751.4765625,-924.015564,119.3099289,-796.0856323,-896.458374,112.5747299,-720.8842163,-968.671936,88.24673462,-476.0612488,-921.8685913,124.9654541,-433.2174072,-882.1914063,117.6321259,-503.3223877
-980.6900635,84.31541443,-751.4915771,-924.0043945,119.2849045,-796.0962524,-896.4421387,112.5852432,-720.8865356,-968.6669922,88.25158691,-476.0681152,-921.8683472,124.9430847,-433.2334595,-882.1777954,117.6327591,-503.3256226
-980.7007446,84.30678558,-751.4766846,-923.9769897,119.3113251,-796.1346436,-896.4575195,112.6067276,-720.8918457,-968.6773682,88.26462555,-476.0704956,-921.8904419,124.9990692,-433.1968689,-882.1742554,117.6203537,-503.316864
-980.7000122,84.29898071,-751.4780273,-923.9824219,119.2972565,-796.0993042,-896.4628296,112.6032639,-720.9072266,-968.6714478,88.26148224,-476.0717468,-921.6982422,124.8157425,-433.570282,-882.1707764,117.6165619,-503.3040466
-980.7002563,84.30409241,-751.4780884,-923.9986572,119.2770538,-796.109314,-896.4315186,112.5796661,-720.9194946,-968.6912231,88.28230286,-476.0708313,-921.677124,124.8047409,-433.5841064,-882.1923218,117.6230545,-503.3428955
-980.699646,84.3151474,-751.4673462,-924.0375366,119.3128967,-796.1333618,-896.423645,112.5831375,-720.9065552,-968.6734009,88.27062988,-476.0863037,-921.6659546,124.8262558,-433.5932007,-882.180481,117.6465302,-503.3287048
-980.6966553,84.32759857,-751.4595337,-923.9491577,119.334877,-796.1178589,-896.4263306,112.5962906,-720.9089966,-968.6876221,88.29653931,-476.0825195,-921.6455688,124.8338928,-433.6004333,-882.1466064,117.6301498,-503.3463745
-980.6916504,84.32752991,-751.4619751,-923.9569092,119.3604202,-796.1321411,-896.4277344,112.6044922,-720.9093628,-968.6630859,88.28456879,-476.0967407,-921.635498,124.8377151,-433.6181946,-882.1709595,117.6455688,-503.3417664
-980.6690063,84.34468842,-751.4625244,-923.8875122,119.3239136,-796.1246338,-896.4003906,112.6042709,-720.9013062,-968.6547852,88.30406952,-476.0864868,-921.762207,125.0107346,-433.2735901,-882.1447754,117.6343231,-503.3273315
-980.6721191,84.35540009,-751.4473877,-923.9544678,119.3275223,-796.1296997,-896.3963013,112.6060867,-720.9233398,-968.6519775,88.28555298,-476.0953979,-921.7830811,125.0090866,-433.266449,-882.1296387,117.6393204,-503.3250732
-980.6838989,84.34951019,-751.4578247,-923.927002,119.3100433,-796.1402588,-896.4030151,112.6276779,-720.9192505,-968.6552124,88.29810333,-476.0889587,-921.6300049,124.8661652,-433.6359558,-882.1447144,117.6478271,-503.3303833
-980.6790161,84.34875488,-751.4682007,-923.9332275,119.3254623,-796.142395,-896.3833008,112.6325912,-720.947876,-968.6490479,88.31162262,-476.0877991,-921.6229858,124.8588943,-433.6289673,-882.140564,117.6463165,-503.3368835
-980.6738281,84.354599,-751.4559326,-923.8964233,119.3833694,-796.1555176,-896.3804321,112.6370468,-720.968689,-968.6479492,88.31150055,-476.0834961,-921.6231689,124.8557816,-433.6090698,-882.1203003,117.6486282,-503.3353271
-980.6779785,84.3585968,-751.4553833,-923.9119263,119.3430862,-796.1502075,-896.3962402,112.637352,-720.956604,-968.6443481,88.31583405,-476.0794373,-921.6380615,124.8648987,-433.6176453,-882.1265259,117.6667862,-503.3364563
-980.6600952,84.35041809,-751.4654541,-923.9070435,119.3481674,-796.1550903,-896.3875122,112.6605148,-720.9606323,-968.6298828,88.30127716,-476.090271,-921.6322021,124.8578262,-433.6164246,-882.116394,117.6567001,-503.3175049
-980.6499023,84.35176086,-751.4575195,-923.8794556,119.3487473,-796.1572266,-896.3847656,112.6559982,-720.9494019,-968.6224365,88.29388428,-476.1019897,-921.6424561,124.8578568,-433.635498,-882.1149902,117.6388016,-503.3247681
-980.6608887,84.36058044,-751.4415894,-923.9284058,119.3607712,-796.131958,-896.3797607,112.6469193,-720.9577026,-968.645874,88.29951477,-476.0894165,-921.8186035,125.0577927,-433.250885,-882.1126709,117.6600113,-503.3334351
-980.673645,84.3706131,-751.4505615,-923.9060059,119.3434067,-796.1601563,-896.3637695,112.6465836,-720.9754639,-968.6330566,88.28862762,-476.1019287,-921.6242065,124.8720551,-433.6361084,-882.1538086,117.6478119,-503.348877
-980.6844482,84.37862396,-751.4519653,-923.9176636,119.3710785,-796.1760864,-896.364502,112.6444016,-720.97229,-968.6346436,88.3107605,-476.1119385,-921.6350708,124.8750763,-433.6446838,-882.1297607,117.6645889,-503.345459
-980.6896973,84.38909912,-751.446167,-923.8682861,119.3680344,-796.1383057,-896.3533936,112.6478043,-720.9776611,-968.6486206,88.32301331,-476.0975647,-921.6445313,124.8756256,-433.6563416,-882.1013794,117.6521225,-503.3484497
-980.6567383,84.37672424,-751.4525146,-923.8977661,119.3850098,-796.1647949,-896.3659668,112.6470871,-720.9782104,-968.6524658,88.32122803,-476.1061707,-921.6402588,124.8757706,-433.6499939,-882.1234131,117.6598358,-503.3660889
-980.6600952,84.37489319,-751.453064,-923.9180908,119.3843689,-796.1668091,-896.3574829,112.6419678,-720.9752197,-968.6087036,88.3182373,-476.1219177,-921.6045532,124.8654861,-433.670929,-882.1032104,117.6322021,-503.3532104
-980.6674805,84.37574005,-751.4647217,-923.9139404,119.3640213,-796.1720581,-896.3591309,112.6425629,-720.9837036,-968.6237183,88.32976532,-476.1174316,-921.6040039,124.8706589,-433.7076721,-882.0814209,117.6353836,-503.365448
-980.6616821,84.38710022,-751.4671631,-923.9261475,119.3679962,-796.15625,-896.3461304,112.6476974,-720.9907837,-968.6125488,88.32628632,-476.1325684,-921.602478,124.8738785,-433.7054443,-882.0829468,117.6562576,-503.3765259
-980.6789551,84.38802338,-751.4807129,-923.9013062,119.3781281,-796.1505737,-896.3407593,112.6413803,-720.9922485,-968.6089478,88.34015656,-476.1229553,-921.5878906,124.8692627,-433.7283325,-882.0997314,117.646965,-503.3852234
-980.6581421,84.39846802,-751.473999,-923.8892212,119.4048843,-796.1621704,-896.3383789,112.6504822,-720.9786987,-968.6209106,88.34750366,-476.121521,-921.552063,124.8737106,-433.7348633,-882.1141357,117.6692276,-503.3916016
-980.675354,84.40522003,-751.4646606,-923.899353,119.3996124,-796.1627808,-896.3392334,112.6424179,-720.9664307,-968.6068115,88.34604645,-476.1213989,-921.5601196,124.8747635,-433.7289429,-882.0631104,117.6623611,-503.3841553
-980.6470337,84.39812469,-751.4558716,-923.8475952,119.4058533,-796.1292725,-896.3349609,112.6538391,-720.9616699,-968.5841064,88.35283661,-476.1231384,-921.5458984,124.8936996,-433.7393799,-882.0385132,117.6655502,-503.3871155
-980.6382446,84.38624573,-751.4665527,-923.8469238,119.407959,-796.1627808,-896.319397,112.6552124,-720.9603882,-968.5776978,88.35437012,-476.1303406,-921.5484009,124.901474,-433.7530518,-882.0424194,117.6806488,-503.394104
-980.6502075,84.4016037,-751.4477539,-923.821228,119.3939972,-796.1536865,-896.3179932,112.6834259,-720.9564819,-968.597229,88.37536621,-476.1139221,-921.5244751,124.8994675,-433.7578125,-882.0317383,117.6681595,-503.4066162
-980.645752,84.40325165,-751.4692383,-923.8626709,119.4268417,-796.1698608,-896.2991943,112.6787949,-720.991272,-968.583252,88.35152435,-476.1413574,-921.5332642,124.9213104,-433.78479,-882.0313721,117.6722107,-503.4268799
-980.633728,84.40642548,-751.4634399,-923.8903809,119.4284286,-796.168457,-896.2997437,112.6949921,-720.9781494,-968.5784912,88.38182831,-476.135376,-921.520874,124.931366,-433.7599792,-882.0370483,117.6795425,-503.4047241
-980.6387939,84.39965057,-751.4716797,-923.859375,119.4180984,-796.1659546,-896.3154297,112.6986542,-720.9750977,-968.5921631,88.36512756,-476.1188965,-921.5163574,124.9305878,-433.7574158,-882.0175781,117.6812363,-503.4163818
-980.6343384,84.4146347,-751.460083,-923.8463135,119.4362183,-796.1715088,-896.2758789,112.6817322,-720.9816284,-968.5863037,88.39542389,-476.1290894,-921.5039063,124.8994827,-433.7884827,-881.9985962,117.6900864,-503.4118652
-980.6188965,84.42849731,-751.4562378,-923.8640747,119.4491119,-796.1664429,-896.2717896,112.6899033,-720.99646,-968.5665894,88.38504791,-476.1434326,-921.524353,124.9312515,-433.7731934,-881.9749756,117.6612167,-503.3974304
-980.6378784,84.42326355,-751.4648438,-923.8474731,119.4398575,-796.1630859,-896.2697144,112.7051239,-720.987854,-968.5679932,88.38434601,-476.1343384,-921.5037231,124.9387207,-433.7717285,-882.0030518,117.6834259,-503.3976746
-980.6281128,84.42139435,-751.4510498,-923.8604126,119.4796066,-796.1916504,-896.267334,112.7113037,-720.9884644,-968.5765991,88.4025116,-476.1299133,-921.5114136,124.928833,-433.775177,-881.987915,117.6765442,-503.3976746
-980.6256104,84.43088531,-751.458313,-923.8608398,119.4832611,-796.171936,-896.2952881,112.72966,-720.9730835,-968.5765991,88.42098236,-476.1340637,-921.5093994,124.9447479,-433.7532959,-881.9973145,117.6954498,-503.3945313
-980.6104126,84.42346954,-751.4537354,-923.8162231,119.4968948,-796.1903687,-896.2928467,112.7148743,-720.9765015,-968.5680542,88.41293335,-476.1144409,-921.4992065,124.9352188,-433.781311,-882.0042114,117.6908569,-503.3871765
-980.6229248,84.43896484,-751.4466553,-923.7973633,119.4790955,-796.1367798,-896.3062744,112.7270889,-720.9628906,-968.5463867,88.39672852,-476.1486206,-921.5113525,124.9380798,-433.7740479,-881.9799805,117.6990051,-503.3916626
-980.6188354,84.43210602,-751.4308472,-923.7784424,119.4689636,-796.1306763,-896.2878418,112.71064,-720.9607544,-968.5396729,88.40228271,-476.1343689,-921.4882202,124.9406586,-433.7822266,-881.9793701,117.6988831,-503.400238
-980.6131592,84.42353058,-751.4348145,-923.8078003,119.4781952,-796.1282349,-896.2872925,112.7130814,-720.9598999,-968.5469971,88.4102478,-476.1344604,-921.4992065,124.9449997,-433.7661133,-881.9563599,117.6992645,-503.3855896
-980.6247559,84.42736816,-751.4231567,-923.7642822,119.4616318,-796.1344604,-896.2908936,112.7220917,-720.9349365,-968.5618896,88.41153717,-476.1257629,-921.5036621,124.9370804,-433.7702332,-881.9611816,117.7075119,-503.3778381
-980.6275024,84.43225861,-751.4238281,-923.8099365,119.4597397,-796.1154785,-896.2763062,112.7225952,-720.9414673,-968.5656128,88.40680695,-476.1430359,-921.5027466,124.9469223,-433.7419434,-881.9680786,117.7070618,-503.3964844
-980.6467285,84.41918182,-751.4379883,-923.803894,119.5080185,-796.1392822,-896.2808228,112.7197952,-720.9267578,-968.5480957,88.41079712,-476.1198425,-921.4928589,124.9489746,-433.7566528,-881.9696655,117.7014999,-503.3834229
-980.616333,84.42398071,-751.428833,-923.7944946,119.4588318,-796.1143799,-896.2915039,112.7180481,-720.9155273,-968.5609741,88.42815399,-476.1262207,-921.4898071,124.9556961,-433.7378845,-881.946167,117.7010345,-503.3677673
-980.6132813,84.42087555,-751.4319458,-923.7672729,119.4572296,-796.1331787,-896.2806396,112.716362,-720.9161377,-968.5238037,88.39811707,-476.142395,-921.4992676,124.9553528,-433.7596436,-881.96875,117.6841202,-503.3801575
-980.6264648,84.42169952,-751.4243164,-923.7694092,119.4987869,-796.1296387,-896.2782593,112.7138367,-720.9159546,-968.5331421,88.42147827,-476.1253052,-921.4863892,124.9758224,-433.7676086,-881.9404907,117.6988678,-503.3632813
-980.6273193,84.44548798,-751.4295044,-923.7850952,119.4914474,-796.1253662,-896.2769775,112.7024231,-720.9064941,-968.5302124,88.4190979,-476.131012,-921.4915771,124.9827271,-433.7800293,-881.9455566,117.6933517,-503.3655396
-980.6380615,84.43891907,-751.4279175,-923.7715454,119.5062943,-796.1207886,-896.2683716,112.7110596,-720.9160156,-968.5423584,88.44316864,-476.1106567,-921.4737549,124.9615173,-433.783905,-881.954834,117.7002182,-503.3843994
-980.6340942,84.44446564,-751.4205933,-923.803833,119.4879913,-796.1046143,-896.2669067,112.7177963,-720.9136353,-968.5407104,88.43540192,-476.1361389,-921.4691162,124.9734192,-433.8014832,-881.9729614,117.7042923,-503.3847351
-980.6314087,84.43157959,-751.430481,-923.7821045,119.4698105,-796.1154785,-896.2944946,112.7384949,-720.890564,-968.5438843,88.43687439,-476.1317139,-921.4846802,124.9563675,-433.8020325,-881.9490356,117.7081757,-503.3875427
-980.6357422,84.42920685,-751.4404907,-923.809082,119.5240707,-796.1200562,-896.2736816,112.7212067,-720.9011841,-968.5340576,88.43390656,-476.1253052,-921.4765625,124.9570389,-433.7980042,-881.9660645,117.6919479,-503.3926086
-980.614624,84.42721558,-751.4299316,-923.7282104,119.5046921,-796.1227417,-896.2791138,112.7233582,-720.9108276,-968.5194092,88.44494629,-476.134491,-921.4730835,124.9585419,-433.7882385,-881.9153442,117.7038345,-503.3762207
-980.6054688,84.44515991,-751.4353638,-923.7515869,119.5102844,-796.159668,-896.2734985,112.7253189,-720.9197388,-968.5045776,88.44515228,-476.1314392,-921.472229,124.9856644,-433.7769165,-881.9361572,117.6972122,-503.384613
-980.6209106,84.45790863,-751.4205322,-923.7770386,119.5160675,-796.1061401,-896.2744141,112.7404633,-720.9080811,-968.5269775,88.45001984,-476.1318054,-921.4766846,124.9800186,-433.7894897,-881.9210815,117.7229309,-503.3861084
-980.6395874,84.45729065,-751.418457,-923.763916,119.5155106,-796.1466675,-896.286499,112.7484665,-720.9078979,-968.5245361,88.455513,-476.1278992,-921.4658203,124.9771957,-433.7961121,-881.9194336,117.7292252,-503.3936768
-980.6152344,84.46847534,-751.4165649,-923.7633667,119.5106888,-796.1179199,-896.2658081,112.7408142,-720.9067993,-968.5065918,88.45962524,-476.1219482,-921.6571045,125.1987,-433.3546448,-881.9180908,117.7328873,-503.3678894
-980.6210327,84.45851898,-751.4191284,-923.7428589,119.5579224,-796.128479,-896.255188,112.7485352,-720.9188232,-968.5354004,88.45680237,-476.1270752,-921.4957275,125.0039597,-433.7181396,-881.9033203,117.7259293,-503.3765869
-980.5887451,84.46240234,-751.4405518,-923.7040405,119.5537415,-796.1300049,-896.2507935,112.7514954,-720.9207764,-968.5210571,88.45923615,-476.130127,-921.5037842,125.0195313,-433.7290955,-881.9021606,117.7342453,-503.3656616
-980.5977173,84.46340942,-751.4447632,-923.7141113,119.5447006,-796.1602173,-896.2498169,112.7481766,-720.9274902,-968.5280762,88.4695282,-476.1281433,-921.491333,125.0259552,-433.7371216,-881.8999634,117.7436981,-503.3658447
-980.6082764,84.46549988,-751.4326172,-923.7446289,119.5246964,-796.1435547,-896.2677002,112.7408752,-720.9403076,-968.5200806,88.44843292,-476.1371155,-921.4805298,125.026741,-433.72995,-881.8873901,117.7402649,-503.3735962
-980.6192627,84.45880127,-751.4350586,-923.7715454,119.5424652,-796.1623535,-896.2440186,112.7338715,-720.9423218,-968.5421143,88.46651459,-476.1222839,-921.4955444,125.0196152,-433.7400513,-881.9174805,117.738678,-503.3726501
-980.6196289,84.46559906,-751.4420776,-923.7512207,119.5243835,-796.1352539,-896.2531738,112.7420502,-720.9436035,-968.5289917,88.46305084,-476.1364441,-921.4932861,125.016716,-433.7384644,-881.9310303,117.7223053,-503.3771667
-980.6320801,84.4684906,-751.4337158,-923.7371216,119.5573273,-796.1497192,-896.2562866,112.7544327,-720.9222412,-968.5297241,88.46546173,-476.1221008,-921.4944458,125.0058975,-433.7530823,-881.9127808,117.7142105,-503.3581543
-980.6182861,84.46408844,-751.4558105,-923.7384033,119.5328598,-796.1287842,-896.2628784,112.747406,-720.9366455,-968.5387573,88.45935059,-476.1349792,-921.4780884,125.0183487,-433.7540283,-881.9067993,117.7327957,-503.3667297
-980.6066895,84.47012329,-751.4397583,-923.7711792,119.5425568,-796.1348877,-896.249939,112.7553177,-720.9376221,-968.5249634,88.45633698,-476.1465759,-921.4883423,125.0071793,-433.7643127,-881.9026489,117.727066,-503.3706665
-980.6097412,84.45332336,-751.4304199,-923.7564087,119.5320892,-796.1559448,-896.2715454,112.7399902,-720.9276123,-968.5452881,88.46910095,-476.1130066,-921.4902344,124.9941406,-433.7698669,-881.9301147,117.7331543,-503.3769226
-980.6149902,84.44254303,-751.4210205,-923.7601929,119.5383072,-796.1445923,-896.2727051,112.7347336,-720.9187012,-968.5227051,88.44391632,-476.1384583,-921.4992676,124.9972687,-433.7761841,-881.9478149,117.7102127,-503.3816528
-980.6377563,84.4536438,-751.4298096,-923.7857666,119.5228119,-796.1414185,-896.2653198,112.7262497,-720.9119263,-968.5251465,88.45335388,-476.135498,-921.4886475,124.9890289,-433.7770691,-881.9360962,117.7351608,-503.3939819
-980.6338501,84.44873047,-751.4210205,-923.7924805,119.5231171,-796.1580811,-896.2636719,112.7190628,-720.9286499,-968.534729,88.44195557,-476.1313171,-921.5013428,124.9755173,-433.8125305,-881.9362183,117.705101,-503.3839111
-980.6277466,84.4486084,-751.4226685,-923.7633667,119.5258484,-796.1575928,-896.2713623,112.7083435,-720.9081421,-968.5263062,88.44541931,-476.1271362,-921.4824829,124.9826126,-433.809906,-881.9451294,117.7092438,-503.3892822
-980.6221924,84.44328308,-751.4192505,-923.7802734,119.5209274,-796.1333618,-896.2554932,112.7113724,-720.9015503,-968.5181885,88.42559052,-476.1369324,-921.4840698,124.9573135,-433.7838745,-881.9342041,117.7068253,-503.3817749
-980.619812,84.43000031,-751.4334717,-923.7617798,119.5026321,-796.1102905,-896.2677002,112.7089081,-720.8965454,-968.5297852,88.42305756,-476.1467896,-921.4867554,124.9808578,-433.794281,-881.9407959,117.6998367,-503.3890381
-980.6182251,84.44651031,-751.4318237,-923.8093262,119.4980698,-796.125061,-896.2786255,112.7000961,-720.8951416,-968.5419922,88.43030548,-476.1222534,-921.4865723,124.972168,-433.7768555,-881.9747314,117.6988144,-503.4023132
-980.626709,84.43115234,-751.4292603,-923.7658691,119.4725418,-796.0838623,-896.2731934,112.7008514,-720.8914795,-968.5314941,88.41607666,-476.1412354,-921.4852295,124.9624176,-433.802948,-881.9609985,117.6938477,-503.388855
-980.6273193,84.44889832,-751.442627,-923.7667847,119.509552,-796.1295776,-896.2807007,112.7078857,-720.9086304,-968.5328979,88.41303253,-476.1169128,-921.4839478,124.9483719,-433.8042603,-881.9633179,117.7024918,-503.4017334
-980.638855,84.44591522,-751.4263916,-923.7889404,119.4921494,-796.1324463,-896.2845459,112.711113,-720.911499,-968.5362549,88.40653229,-476.1350708,-921.484436,124.9725723,-433.7934265,-881.9512329,117.7009583,-503.3853455
-980.6266479,84.43170166,-751.4231567,-923.788147,119.4969635,-796.1453247,-896.2855835,112.7053452,-720.9234619,-968.5161743,88.39971161,-476.1450806,-921.4852905,124.9549561,-433.7958069,-881.9516602,117.7040405,-503.382782
-980.6366577,84.41571045,-751.4300537,-923.822937,119.4939499,-796.1401978,-896.2827148,112.6860428,-720.9072876,-968.5250244,88.41112518,-476.1443176,-921.4846802,124.9422836,-433.7796021,-881.9348145,117.6943741,-503.3729553
-980.6386719,84.42626953,-751.4121704,-923.7845459,119.5145721,-796.1341553,-896.2752686,112.7080154,-720.9074707,-968.5305176,88.41516113,-476.1366272,-921.4888306,124.9501877,-433.7868958,-881.9521484,117.6919632,-503.3701477
-980.645752,84.43273163,-751.4187012,-923.7835083,119.4910507,-796.0921631,-896.2897339,112.6950455,-720.9104614,-968.5265503,88.41390991,-476.1340027,-921.484314,124.968483,-433.7842712,-881.9830933,117.7165833,-503.3937378
-980.6282959,84.43297577,-751.4281006,-923.817749,119.4737701,-796.0928345,-896.2796631,112.7080231,-720.9127808,-968.5482178,88.42530823,-476.1282043,-921.493042,124.9588776,-433.7758789,-881.9520264,117.697937,-503.3764648
-980.6530151,84.42786407,-751.4282837,-923.7889404,119.4901352,-796.1073608,-896.2962036,112.6979599,-720.9025269,-968.5367432,88.39730835,-476.1320801,-921.5012207,124.9659195,-433.7631531,-881.9927979,117.6835709,-503.3764648
-980.6368408,84.42167664,-751.4446411,-923.8105469,119.4496231,-796.0981445,-896.2908936,112.7014236,-720.9015503,-968.5476074,88.42205811,-476.1270142,-921.4988403,124.9613724,-433.7494507,-881.9764404,117.6891708,-503.3709717
-980.6193848,84.42317963,-751.4254761,-923.7969971,119.4512863,-796.0901489,-896.305542,112.6906738,-720.9033203,-968.5540161,88.40748596,-476.1173706,-921.4857178,124.9599915,-433.7546692,-881.9633179,117.7093735,-503.3653259
-980.6325073,84.41560364,-751.4295044,-923.8056641,119.444664,-796.1018677,-896.3043823,112.6918335,-720.9082642,-968.5478516,88.41277313,-476.141449,-921.5009766,124.9507675,-433.7800598,-881.9441528,117.6920547,-503.378418
-980.6391602,84.41163635,-751.4298096,-923.8110352,119.4760284,-796.121582,-896.2984619,112.6860886,-720.9036865,-968.5511475,88.40816498,-476.1417847,-921.5219116,124.9634399,-433.7636719,-881.9825439,117.6892166,-503.37323
-980.6287231,84.42028046,-751.4261475,-923.8013306,119.4488449,-796.0963745,-896.3011475,112.6765213,-720.9049072,-968.5569458,88.39969635,-476.1339111,-921.5026855,124.9598541,-433.7539673,-881.9776611,117.6830368,-503.3817749
-980.6375122,84.417099,-751.4248047,-923.8204346,119.4838638,-796.1212158,-896.3043823,112.6921997,-720.8858032,-968.5606079,88.4205246,-476.1256104,-921.5093994,124.9592819,-433.787384,-881.9744263,117.6992264,-503.3708496
-980.6278076,84.42353821,-751.4249268,-923.8088379,119.4641876,-796.0963135,-896.3215942,112.6787186,-720.8947144,-968.5511475,88.40486145,-476.1348267,-921.5058594,124.9301682,-433.7808533,-881.9900513,117.6981506,-503.3710938
-980.6317749,84.42620087,-751.4344482,-923.8206177,119.4305267,-796.0751953,-896.2995605,112.6585693,-720.9060669,-968.5669556,88.40481567,-476.1335754,-921.5216064,124.9355316,-433.7662659,-881.9726563,117.6932831,-503.3797913
-980.6467285,84.41873932,-751.4192505,-923.8007813,119.455574,-796.1184692,-896.2974854,112.6722641,-720.8980103,-968.5649414,88.41535187,-476.1180115,-921.5144043,124.9365463,-433.7891846,-881.9758301,117.6912918,-503.388916
-980.6310425,84.40608978,-751.4142456,-923.8321533,119.4671097,-796.0910645,-896.3074341,112.6789474,-720.9016113,-968.5630493,88.39267731,-476.1367798,-921.5264282,124.9564514,-433.7732544,-881.9559937,117.6968231,-503.3799744
-980.6347656,84.40892792,-751.4302368,-923.8613892,119.4587555,-796.1016235,-896.2894287,112.6396255,-720.9005127,-968.5415649,88.40027618,-476.1519165,-921.4856567,124.9226379,-433.7940979,-881.9682007,117.6775208,-503.3909912
-980.6377563,84.41443634,-751.4220581,-923.803833,119.4686584,-796.123291,-896.310791,112.6605911,-720.8994751,-968.5562134,88.39820862,-476.1296387,-921.5062866,124.9453506,-433.7938232,-881.994751,117.6963043,-503.4031067
-980.6335449,84.41963959,-751.4214478,-923.8397217,119.4425735,-796.0817871,-896.3085938,112.666893,-720.890564,-968.5593262,88.39699554,-476.1420898,-921.517334,124.9461441,-433.7832642,-881.9988403,117.6860352,-503.3860474
-980.6517944,84.42036438,-751.4232788,-923.8197021,119.4762344,-796.109314,-896.3018799,112.6529236,-720.8928833,-968.5532227,88.40465546,-476.1422119,-921.5253296,124.9504471,-433.7781067,-881.973877,117.6867218,-503.3847351
-980.6455078,84.40981293,-751.4208984,-923.8406372,119.4614716,-796.0939331,-896.3078003,112.6586304,-720.9038696,-968.5354614,88.38941193,-476.15271,-921.524231,124.9486847,-433.7938538,-881.9901123,117.6604996,-503.3924255
-980.6314697,84.41584778,-751.4161987,-923.8153687,119.4340668,-796.0969849,-896.3009033,112.6549683,-720.9103394,-968.5481567,88.39527893,-476.1509399,-921.5144653,124.9332352,-433.805481,-881.975708,117.668396,-503.4040527
-980.6409912,84.41207123,-751.4337158,-923.8182983,119.4343491,-796.1110229,-896.3161011,112.6542892,-720.878418,-968.5484009,88.38334656,-476.1534424,-921.5184326,124.9489441,-433.7939453,-881.9675903,117.678421,-503.3957214
-980.6427002,84.40247345,-751.4284058,-923.8364258,119.4653244,-796.0916748,-896.2907715,112.6548157,-720.9008179,-968.555542,88.40332031,-476.1494751,-921.5043945,124.918045,-433.8172302,-881.9926147,117.6855698,-503.4021606
-980.6425781,84.40474701,-751.4244995,-923.8063354,119.4180679,-796.0900269,-896.3301392,112.6830215,-720.901123,-968.5547485,88.38929749,-476.1746216,-921.5199585,124.9370346,-433.8084106,-881.996582,117.6903,-503.3970337
-980.6408691,84.39800262,-751.4285278,-923.8163452,119.4086685,-796.0787354,-896.3184814,112.6639023,-720.8933105,-968.5448608,88.38696289,-476.1760559,-921.5045776,124.9304276,-433.8057861,-881.9821167,117.6993408,-503.3904724
-980.6425781,84.40715027,-751.4204102,-923.8183594,119.4221115,-796.0775757,-896.3297729,112.6988983,-720.8998413,-968.5498657,88.40738678,-476.1489868,-921.5184937,124.9460754,-433.8294373,-882.0055542,117.6917343,-503.4030457
-980.6185303,84.40652466,-751.4411621,-923.8502808,119.4036102,-796.0963745,-896.3028564,112.6817551,-720.8984375,-968.56604,88.41368866,-476.1304626,-921.5031738,124.9209595,-433.8251648,-881.9737549,117.7064819,-503.40625
-980.6413574,84.40644073,-751.4307251,-923.8198853,119.4570313,-796.1206055,-896.3252563,112.6842957,-720.8853149,-968.5455933,88.39550018,-476.1581726,-921.5059814,124.9303589,-433.8248291,-881.9805298,117.6813965,-503.3930969
-980.6353149,84.40366364,-751.4306641,-923.8364258,119.4463654,-796.1366577,-896.3109741,112.6858902,-720.9029541,-968.5452271,88.38460541,-476.1766663,-921.5159302,124.9363251,-433.7947998,-881.9986572,117.6912384,-503.4048767
-980.6487427,84.40486908,-751.4195557,-923.8577271,119.4113541,-796.0828857,-896.335083,112.6767349,-720.8747559,-968.5683594,88.40274048,-476.1356506,-921.5187378,124.9193954,-433.7885742,-881.9853516,117.6943817,-503.3859253
-980.6520386,84.38745117,-751.4352417,-923.8208008,119.3974304,-796.0883179,-896.328125,112.6466293,-720.885437,-968.55896,88.38755035,-476.1390381,-921.5108032,124.9291382,-433.7991638,-881.9558716,117.6791153,-503.3910522
-980.6432495,84.39518738,-751.4354858,-923.8294678,119.3990326,-796.0973511,-896.3348999,112.6689224,-720.9031372,-968.5795288,88.3917923,-476.1610718,-921.5032959,124.9368286,-433.8102112,-881.9910278,117.6878357,-503.4093018
-980.6416626,84.40128326,-751.4324341,-923.8111572,119.3930054,-796.1032715,-896.3245239,112.663414,-720.8991089,-968.5709229,88.39271545,-476.148407,-921.5085449,124.9172287,-433.8080444,-881.9932251,117.6797409,-503.3973694
-980.6459351,84.38630676,-751.4381104,-923.8374634,119.4296341,-796.1253052,-896.3294067,112.6592941,-720.8817749,-968.5727539,88.4023819,-476.1579895,-921.5126953,124.9059601,-433.8348083,-881.9898682,117.6797791,-503.3974915
-980.6309814,84.38552094,-751.4336548,-923.8616333,119.4041901,-796.1176147,-896.3328857,112.6652985,-720.9061279,-968.567749,88.39668274,-476.1553345,-921.5128784,124.9045715,-433.793457,-881.9897461,117.6744537,-503.4109802
-980.6543579,84.39234161,-751.4294434,-923.8760986,119.4125748,-796.0941772,-896.3536987,112.6722183,-720.9086304,-968.5783081,88.39559937,-476.1490479,-921.517334,124.9140472,-433.8069763,-882.0123901,117.6829529,-503.4194336
-980.6472778,84.39231873,-751.4354248,-923.8406982,119.4167023,-796.0919189,-896.3572388,112.6459274,-720.8949585,-968.597168,88.34565735,-476.1723633,-921.5206299,124.9047012,-433.7993469,-881.9873047,117.6758194,-503.4226074
-980.6411743,84.38391113,-751.4297485,-923.8479614,119.4108658,-796.1000366,-896.3419189,112.6692429,-720.9040527,-968.5911865,88.38589478,-476.1362,-921.5240479,124.8968277,-433.8155212,-882.0148926,117.6633301,-503.4221191
-980.6505127,84.37950134,-751.4191284,-923.8938599,119.4137192,-796.1153564,-896.3598022,112.6504364,-720.8890381,-968.6146851,88.37991333,-476.1430664,-921.5504761,124.9004288,-433.7937927,-881.9909058,117.6514359,-503.4256287
-980.6640625,84.38663483,-751.4241943,-923.9087524,119.4007721,-796.0723877,-896.3710938,112.6211624,-720.8653564,-968.6142578,88.39118958,-476.1365356,-921.5366211,124.8870468,-433.8093262,-881.9926147,117.6567841,-503.4145508
-980.659729,84.38412476,-751.4333496,-923.8810425,119.3775406,-796.0478516,-896.3781738,112.6146774,-720.8777466,-968.609436,88.35614014,-476.1641846,-921.5522461,124.8923569,-433.787262,-882.0004883,117.6481171,-503.3956604
-980.6652832,84.3707962,-751.4267578,-923.8676147,119.3637161,-796.052002,-896.3773804,112.6373215,-720.8562012,-968.6043091,88.35889435,-476.1432495,-921.5458374,124.8829651,-433.7971497,-882.0048828,117.6538162,-503.4162903
-980.6619263,84.371521,-751.4169922,-923.8823242,119.3759079,-796.0611572,-896.3446655,112.6183395,-720.8828735,-968.6092529,88.33514404,-476.1538391,-921.5595703,124.8681488,-433.8057861,-882.0180054,117.6723709,-503.4092407
-980.6740723,84.36889648,-751.4232788,-923.9002686,119.3395233,-796.0471191,-896.3818359,112.6091766,-720.8713989,-968.6047974,88.35716248,-476.1505127,-921.5300293,124.8734665,-433.7972717,-881.9970703,117.6768417,-503.4090576
-980.6726685,84.35591125,-751.4213257,-923.8605347,119.33181,-796.0514526,-896.3686523,112.6164856,-720.8693848,-968.6322632,88.34783173,-476.1357727,-921.5564575,124.8594971,-433.8007813,-882.0518799,117.650177,-503.401123
-980.678772,84.35764313,-751.4192505,-923.9153442,119.3369598,-796.0741577,-896.366394,112.5913696,-720.8498535,-968.612793,88.3332901,-476.1595764,-921.5484619,124.8682251,-433.7739868,-882.0476685,117.6371155,-503.3884277
-980.6755371,84.34288788,-751.4419556,-923.8773804,119.3448563,-796.0322266,-896.3675537,112.5936584,-720.8500977,-968.6101074,88.31954193,-476.1435547,-921.5392456,124.8554077,-433.7600708,-882.0623169,117.6523819,-503.4091187
-980.6706543,84.35020447,-751.4244385,-923.9020386,119.3337021,-796.0493774,-896.3738403,112.5868301,-720.8490601,-968.6204224,88.34198761,-476.1376343,-921.5419922,124.8565369,-433.7460327,-882.0459595,117.6669617,-503.3874817
-980.6791992,84.33565521,-751.4310303,-923.895874,119.3340073,-796.0545654,-896.3765869,112.5757599,-720.8474121,-968.6156006,88.33308411,-476.1587524,-921.534668,124.852005,-433.7692871,-882.0249023,117.6521606,-503.3997192
-980.6913452,84.34016418,-751.4306641,-923.9094849,119.3511353,-796.0529785,-896.3901978,112.5741806,-720.8343506,-968.6361694,88.3297348,-476.1521606,-921.5603638,124.8515091,-433.7627563,-882.0475464,117.6607132,-503.3797302
-980.684082,84.34552002,-751.4239502,-923.9360352,119.3417892,-796.0158691,-896.413208,112.5897827,-720.8424072,-968.6157837,88.32463074,-476.1533508,-921.5796509,124.8589783,-433.7635498,-882.0581055,117.6468048,-503.3688965
