X3,Y3,Z3
-2073.415039,664.9200439,-764.7418213
-2073.369629,664.8901367,-764.7985229
-2073.347168,664.8590698,-764.8592529
-2073.335693,664.8267822,-764.9209595
-2073.325684,664.7939453,-764.982666
-2073.311035,664.762146,-765.0443726
-2073.286377,664.7332764,-765.1062012
-2073.249756,664.7084961,-765.1682739
-2073.199707,664.6884155,-765.2307129
-2073.137207,664.6724243,-765.2932129
-2073.064941,664.6586914,-765.3545532
-2072.986084,664.644104,-765.4124146
-2072.9021,664.6251221,-765.4644165
-2072.813721,664.598999,-765.5088501
-2072.720947,664.5635376,-765.5448608
-2072.624512,664.5184937,-765.5726318
-2072.527588,664.4647217,-765.5933838
-2072.432617,664.4041748,-765.6083984
-2072.342285,664.3383789,-765.6182251
-2072.258301,664.2683716,-765.6226196
-2072.180664,664.1948242,-765.6219482
-2072.107666,664.1184082,-765.6169434
-2072.037354,664.0407104,-765.6092529
-2071.966553,663.9648438,-765.6002197
-2071.892822,663.8946533,-765.5905762
-2071.815674,663.8325195,-765.5795898
-2071.73584,663.7775269,-765.5656128
-2071.655273,663.7277222,-765.5474854
-2071.574707,663.6821289,-765.5266113
-2071.493408,663.6401978,-765.5053711
-2071.412598,663.6010132,-765.4858398
-2071.332275,663.5637207,-765.4686279
-2071.25293,663.5275879,-765.4539185
-2071.175049,663.4920044,-765.4420166
-2071.098389,663.4570923,-765.43396
-2071.024414,663.4233398,-765.430542
-2070.952393,663.3914795,-765.4318237
-2070.880859,663.3621826,-765.4362183
-2070.807373,663.3358154,-765.4408569
-2070.72876,663.312439,-765.442627
-2070.640625,663.2921143,-765.4398804
-2070.537109,663.2753296,-765.432373
-2070.40918,663.2639771,-765.4206543
-2070.248047,663.2602539,-765.4058228
-2070.049561,663.2654419,-765.3894653
-2069.81665,663.2797852,-765.3735352
-2069.556641,663.3033447,-765.3602295
-2069.279053,663.3359375,-765.3512573
-2068.994629,663.37677,-765.3474731
-2068.713379,663.423584,-765.3475342
-2068.444336,663.4719238,-765.3482666
-2068.195557,663.515686,-765.34552
-2067.972656,663.5492554,-765.336853
-2067.779053,663.5690308,-765.3227539
-2067.615723,663.574646,-765.3060303
-2067.481934,663.5679321,-765.2897949
-2067.376221,663.5526733,-765.2766113
-2067.295898,663.5332031,-765.2678223
-2067.238525,663.5137329,-765.2636108
-2067.200684,663.4974365,-765.2637939
-2067.18042,663.4854736,-765.2677002
-2067.176758,663.4780884,-765.274292
-2067.187988,663.4744263,-765.2826538
-2067.212402,663.4732056,-765.2914429
-2067.248779,663.4732056,-765.2994385
-2067.294922,663.473999,-765.3063965
-2067.349609,663.4759521,-765.3121948
-2067.411133,663.4800415,-765.3170166
-2067.477539,663.4875488,-765.3203125
-2067.547119,663.4989624,-765.3207397
-2067.617676,663.5144653,-765.3165283
-2067.687988,663.5332031,-765.3062744
-2067.755371,663.5536499,-765.2889404
-2067.820313,663.5734863,-765.2641602
-2067.88208,663.5904541,-765.2320557
-2067.941406,663.6027222,-765.1933594
-2067.998047,663.6097412,-765.1497803
-2068.052246,663.6120605,-765.1039429
-2068.103027,663.6109619,-765.0591431
-2068.150879,663.6067505,-765.017395
-2068.19751,663.5984497,-764.9785767
-2068.243408,663.5858765,-764.9420166
-2068.287842,663.5715942,-764.9093018
-2068.327881,663.5603027,-764.8833008
-2068.36084,663.5545044,-764.8654175
-2068.385742,663.5527344,-764.8536987
-2068.402344,663.550415,-764.8442383
-2068.411865,663.543396,-764.8342896
-2068.415039,663.5305176,-764.8236084
-2068.412354,663.5126343,-764.8133545
-2068.405029,663.491333,-764.8045044
-2068.39502,663.4686279,-764.7973633
-2068.384521,663.4467773,-764.791748
-2068.376465,663.4276733,-764.7875977
-2068.373047,663.4127197,-764.784668
-2068.375977,663.4022827,-764.7827759
-2068.385742,663.3961182,-764.7819214
-2068.401855,663.3938599,-764.7825317
-2068.424316,663.3951416,-764.7850342
-2068.452393,663.3995972,-764.7894897
-2068.486084,663.4069824,-764.7959595
-2068.524902,663.4174805,-764.8041992
-2068.568604,663.4312134,-764.8139038
-2068.615967,663.447937,-764.8248291
-2068.66626,663.4679565,-764.8370972
-2068.718018,663.491333,-764.8517456
-2068.769531,663.5183105,-764.8704834
-2068.820313,663.5487061,-764.8946533
-2068.869873,663.5819092,-764.9239502
-2068.918701,663.6160889,-764.9556885
-2068.968018,663.6479492,-764.9851074
-2069.019043,663.6749878,-765.0083618
-2069.072266,663.6964111,-765.024292
-2069.127197,663.7138672,-765.0346069
-2069.18335,663.7293701,-765.0423584
-2069.239014,663.7446289,-765.0499878
-2069.293457,663.7610474,-765.05896
-2069.345215,663.7807617,-765.0709229
-2069.394287,663.8047485,-765.0853882
-2069.443115,663.8302612,-765.09729
-2069.494385,663.8522949,-765.0995483
-2069.550537,663.8672485,-765.0874023
-2069.611816,663.8752441,-765.0612183
-2069.677979,663.8790283,-765.0252686
-2069.748047,663.8822021,-764.9849243
-2069.820557,663.8882446,-764.9454956
-2069.894531,663.8985596,-764.9107666
-2069.968994,663.9127197,-764.8825684
-2070.043945,663.9298096,-764.8617554
-2070.118408,663.9501953,-764.8490601
-2070.192139,663.9759521,-764.8446655
-2070.265137,664.0105591,-764.8486938
-2070.337158,664.0581665,-764.8606567
-2070.409424,664.1225586,-764.880127
-2070.483887,664.2059937,-764.9064941
-2070.562256,664.3082886,-764.9380493
-2070.64624,664.4265137,-764.9718628
-2070.737793,664.5567017,-765.003418
-2070.836914,664.696228,-765.0292969
-2070.943848,664.8460693,-765.0494995
-2071.057129,665.0078125,-765.0657959
-2071.178223,665.178894,-765.0778198
-2071.308594,665.3518066,-765.081665
-2071.447754,665.5162964,-765.0727539
-2071.592773,665.6650391,-765.0499878
-2071.736084,665.7946777,-765.0183716
-2071.869385,665.9031372,-764.9848022
-2071.984375,665.9882202,-764.9562988
-2072.076416,666.0487671,-764.9386597
-2072.141357,666.0861816,-764.9360962
-2072.17627,666.1040649,-764.9506836
-2072.179199,666.1072388,-764.9829102
-2072.146729,666.0996094,-765.0323486
-2072.075928,666.0838013,-765.0983276
-2071.963379,666.0609131,-765.1796875
-2071.806641,666.0322266,-765.2739258
-2071.603027,665.9993896,-765.3768311
-2071.35083,665.9647827,-765.4818726
-2071.049072,665.9316406,-765.581604
-2070.697266,665.9026489,-765.6694336
-2070.294678,665.8792114,-765.7404175
-2069.840332,665.8604126,-765.7918701
-2069.331543,665.8421631,-765.822937
-2068.764893,665.8169556,-765.8330688
-2068.135986,665.7736206,-765.8206787
-2067.441406,665.6984253,-765.7833252
-2066.679199,665.579895,-765.7194824
-2065.847656,665.413208,-765.6310425
-2064.947754,665.2018433,-765.5221558
-2063.981445,664.9564819,-765.3965454
-2062.95459,664.6949463,-765.2568359
-2061.871338,664.4379272,-765.1034546
-2060.73291,664.1992798,-764.9354858
-2059.536377,663.9797363,-764.7540894
-2058.277588,663.7701416,-764.5634766
-2056.951172,663.5587158,-764.3674927
-2055.552734,663.3331909,-764.1689453
-2054.080811,663.0802612,-763.9682617
-2052.5354,662.7855225,-763.7608032
-2050.912598,662.4364624,-763.5385742
-2049.200928,662.0255127,-763.2935181
-2047.386353,661.552063,-763.0180054
-2045.458008,661.0217896,-762.7022705
-2043.4104,660.4458618,-762.3348389
-2041.244141,659.8395996,-761.9064331
-2038.963989,659.2214966,-761.4121704
-2036.576904,658.6115723,-760.8525391
-2034.090942,658.0297852,-760.2313232
-2031.513062,657.4938354,-759.5522461
-2028.846436,657.0170288,-758.8168945
-2026.087646,656.6073608,-758.0245972
-2023.227417,656.2675171,-757.1729126
-2020.250488,655.9966431,-756.2584229
-2017.138672,655.7927856,-755.2764282
-2013.873291,655.6539917,-754.2209473
-2010.441162,655.5784912,-753.0866699
-2006.840088,655.5650635,-751.8723755
-2003.087402,655.6124878,-750.5860596
-1999.226196,655.7171631,-749.2486572
-1995.330566,655.8704834,-747.8961182
-1991.50647,656.0578003,-746.5770264
-1987.888184,656.2597656,-745.3458252
-1984.627075,656.4533691,-744.2532349
-1980.366333,656.9499512,-742.5950317
-1976.096924,657.6195068,-741.0581055
-1971.637695,658.4747314,-739.5386353
-1967.327026,659.7351685,-738.6573486
-1963.008423,661.0640869,-737.8323975
-1958.671021,662.5518799,-737.112854
-1954.304688,664.2744141,-736.5397949
-1949.901978,666.2841187,-736.1401978
-1945.460449,668.6032715,-735.9215088
-1940.983032,671.2207642,-735.8702393
-1936.478271,674.0935059,-735.9539185
-1931.956299,677.151123,-736.1264038
-1927.428345,680.3034668,-736.3360596
-1922.904785,683.4498901,-736.5318604
-1918.334106,687.3395386,-737.0944214
-1913.766113,691.3510132,-737.6317749
-1909.260986,695.3776855,-737.7147217
-1904.759033,699.4022217,-737.7843628
-1900.260376,703.4248047,-737.8401489
-1895.869629,707.6882324,-738.1361084
-1891.511108,712.1016235,-738.4092407
-1887.122803,716.753418,-738.6955566
-1882.890991,721.6079102,-738.7249146
-1878.431885,726.8062134,-738.7609253
-1873.862183,732.2435913,-738.8162231
-1869.263916,737.8442993,-738.9091797
-1864.687988,743.5537109,-739.055603
-1860.160767,749.3309326,-739.2606201
-1855.69043,755.1463013,-739.5211792
-1851.272217,760.9814453,-739.8307495
-1846.894775,766.8278809,-740.1813354
-1842.544678,772.6842651,-740.5634155
-1838.209839,778.5539551,-740.9662476
-1833.88147,784.4431152,-741.37854
-1829.555542,790.3582153,-741.7883911
-1825.231445,796.3048096,-742.1845093
-1820.910889,802.2861328,-742.5571899
-1816.596436,808.3030396,-742.9005127
-1812.290649,814.3530273,-743.2127075
-1807.994995,820.4302368,-743.4960327
-1803.709106,826.5265503,-743.7557373
-1799.431519,832.6325073,-743.9978027
-1795.161011,838.7385864,-744.2275391
-1790.897583,844.8372803,-744.4492188
-1786.641235,850.9244385,-744.6664429
-1782.393555,856.9995728,-744.8825684
-1778.156982,863.0651855,-745.1012573
-1773.934692,869.1248779,-745.3264771
-1769.729004,875.1812744,-745.5621338
-1765.542236,881.2344971,-745.8114014
-1761.37439,887.2805176,-746.0762939
-1757.224854,893.3113403,-746.3579712
-1753.092896,899.3156128,-746.6569214
-1748.978394,905.2801514,-746.9731445
-1744.882568,911.1907959,-747.3044434
-1740.80835,917.0345459,-747.6469727
-1736.759399,922.8001709,-747.9945068
-1732.73938,928.4814453,-748.3397217
-1728.751465,934.0765381,-748.6738892
-1724.796875,939.588623,-748.9866943
-1720.87561,945.0236206,-749.2670898
-1716.986206,950.3885498,-749.5054321
-1713.126953,955.6896973,-749.6964722
-1709.29834,960.9276123,-749.842041
-1705.505371,966.0906982,-749.9552002
-1701.758789,971.1491089,-750.0625
-1698.071045,976.0604248,-750.2001343
-1694.450806,980.7886963,-750.4016724
-1690.89856,985.3232422,-750.6853027
-1687.410278,989.6796265,-751.0487671
-1683.979492,993.8842773,-751.4749756
-1680.60022,997.9597168,-751.9404297
-1677.265625,1001.921387,-752.4215698
-1673.969116,1005.778748,-752.8982544
-1670.705688,1009.535156,-753.355957
-1667.474365,1013.184753,-753.7873535
-1664.27771,1016.713196,-754.192688
-1661.121948,1020.10553,-754.5769653
-1658.016479,1023.354126,-754.9446411
-1654.971802,1026.459839,-755.2962646
-1651.997681,1029.426392,-755.6304932
-1649.099731,1032.255371,-755.9492798
-1646.278809,1034.946411,-756.2592163
-1643.533447,1037.498047,-756.5699463
-1640.862427,1039.908081,-756.8911133
-1638.266479,1042.173706,-757.2305908
-1635.748291,1044.291382,-757.5935059
-1633.312012,1046.257324,-757.9821777
-1630.960938,1048.067749,-758.3970947
-1628.697876,1049.718872,-758.836731
-1626.524414,1051.209229,-759.296875
-1624.44165,1052.541504,-759.7698975
-1622.45105,1053.723633,-760.2457886
-1620.553833,1054.769287,-760.7147217
-1618.751953,1055.69519,-761.1695557
-1617.046875,1056.520142,-761.6060181
-1615.438843,1057.261108,-762.0228271
-1613.927734,1057.931274,-762.4212646
-1612.512451,1058.539917,-762.8035889
-1611.19043,1059.092163,-763.1714478
-1609.958862,1059.589844,-763.5236816
-1608.813965,1060.033325,-763.8546753
-1607.753296,1060.421509,-764.1547852
-1606.774292,1060.753662,-764.4126587
-1605.874878,1061.029907,-764.6176147
-1605.054565,1061.253052,-764.762085
-1604.315186,1061.428955,-764.8432617
-1603.659912,1061.565552,-764.8637695
-1603.091797,1061.670044,-764.8308716
-1602.612427,1061.748169,-764.7545776
-1602.2229,1061.803955,-764.645813
-1601.92395,1061.839478,-764.5148315
-1601.716919,1061.856323,-764.369812
-1601.602173,1061.854736,-764.2159424
-1601.577759,1061.833984,-764.055481
-1601.640259,1061.792725,-763.8880005
-1601.784546,1061.730591,-763.7126465
-1602.004272,1061.649658,-763.5287476
-1602.294189,1061.554321,-763.3358765
-1602.650269,1061.451904,-763.1338501
-1603.070679,1061.348511,-762.9213867
-1603.554688,1061.24939,-762.6968994
-1604.101685,1061.156372,-762.4576416
-1604.710693,1061.066772,-762.2009277
-1605.381226,1060.975342,-761.9244995
-1606.114014,1060.874878,-761.6275024
-1606.911255,1060.759155,-761.3113403
-1607.775391,1060.624023,-760.9796143
-1608.708862,1060.468872,-760.6378174
-1609.713867,1060.29541,-760.2920532
-1610.79187,1060.105957,-759.9486084
-1611.94519,1059.901489,-759.6135254
-1613.177612,1059.68042,-759.2913208
-1614.495117,1059.437744,-758.9833374
-1615.905273,1059.166382,-758.6880493
-1617.414673,1058.858643,-758.4025269
-1619.027588,1058.507813,-758.1241455
-1620.745361,1058.108521,-757.8512573
-1622.566162,1057.65686,-757.5842285
-1624.485474,1057.149658,-757.3248291
-1626.49939,1056.584717,-757.0742798
-1628.60791,1055.960205,-756.8322144
-1630.813232,1055.274048,-756.5965576
-1633.118164,1054.520874,-756.3638306
-1635.524536,1053.692139,-756.130249
-1638.032959,1052.775269,-755.8916626
-1640.643555,1051.755859,-755.6443481
-1643.355347,1050.619507,-755.3862305
-1646.167236,1049.35376,-755.1167603
-1649.076904,1047.948608,-754.8375244
-1652.081665,1046.398071,-754.5517578
-1655.17749,1044.700195,-754.2643433
-1658.359253,1042.855591,-753.9804688
-1661.620972,1040.864868,-753.7036743
-1664.957031,1038.727295,-753.4336548
-1668.363403,1036.439331,-753.1671143
-1671.837036,1033.99707,-752.8995972
-1675.376343,1031.396973,-752.6276855
-1678.979248,1028.636353,-752.3509521
-1682.643066,1025.716064,-752.0722656
-1686.364624,1022.639465,-751.7966309
-1690.141846,1019.414612,-751.5284424
-1693.975342,1016.052917,-751.2695313
-1697.864746,1012.56842,-751.0210571
-1701.80481,1008.976624,-750.7860718
-1705.791504,1005.292236,-750.5686646
-1709.826294,1001.52771,-750.3713379
-1713.911987,997.6907959,-750.196167
-1718.04187,993.7822876,-750.0479736
-1722.196655,989.7966919,-749.9331055
-1726.354126,985.7250366,-749.8556519
-1730.499146,981.559021,-749.8137207
-1734.623291,977.2936401,-749.7996216
-1738.723267,972.9282227,-749.8017578
-1742.797729,968.4658203,-749.80896
-1746.845581,963.9111328,-749.8148804
-1750.867065,959.269104,-749.8196411
-1754.864136,954.5441284,-749.8270874
-1758.840698,949.7401123,-749.8414917
-1762.801147,944.861145,-749.8661499
-1766.748413,939.9113159,-749.9041138
-1770.682861,934.8937988,-749.9594116
-1774.602417,929.8102417,-750.0373535
-1778.502319,924.6617432,-750.1428223
-1782.376587,919.4507446,-750.2784424
-1786.21875,914.1818848,-750.4434814
-1790.022705,908.8616943,-750.6349487
-1793.782104,903.4968872,-750.8478394
-1797.491577,898.0935669,-751.0764771
-1801.147217,892.6576538,-751.3158569
-1804.746704,887.1962891,-751.5615845
-1808.287842,881.7175293,-751.8079224
-1811.77124,876.2301025,-752.0471191
-1815.200806,870.7423706,-752.2700806
-1818.584473,865.2618408,-752.4673462
-1821.925659,859.7932129,-752.6328735
-1825.216553,854.3377686,-752.7665405
-1828.443848,848.894165,-752.8717041
-1831.598877,843.4589844,-752.9501343
-1834.680176,838.027832,-753.0020142
-1837.691162,832.5965576,-753.0289917
-1840.640137,827.1622314,-753.0368042
-1843.540283,821.7225342,-753.0339966
-1846.410889,816.2740479,-753.0286255
-1849.268311,810.810791,-753.0288086
-1852.116211,805.3257446,-753.0455322
-1854.946899,799.8154297,-753.0882568
-1857.753662,794.2833862,-753.1566772
-1860.532593,788.7398682,-753.2424927
-1863.275635,783.197998,-753.3391113
-1865.974731,777.6678467,-753.4447632
-1868.626587,772.1544189,-753.5593262
-1871.236084,766.6589966,-753.6830444
-1873.814453,761.1835938,-753.8143921
-1876.37915,755.7340698,-753.9475098
-1878.946899,750.3208618,-754.0757446
-1881.523682,744.9586792,-754.1981201
-1884.102661,739.6658325,-754.3191528
-1886.674316,734.4649048,-754.4418335
-1889.233643,729.3814697,-754.5626221
-1891.780151,724.4422607,-754.6733398
-1894.315063,719.6727295,-754.7642822
-1896.840332,715.093811,-754.8284302
-1899.359253,710.7196045,-754.8630371
-1901.875854,706.5565796,-754.8707275
-1904.39624,702.6044312,-754.8583374
-1906.927002,698.857605,-754.8348999
-1909.475464,695.307251,-754.8095703
-1912.049194,691.9439697,-754.7897949
-1914.654663,688.7593994,-754.7808228
-1917.29541,685.746582,-754.786377
-1919.973022,682.8986816,-754.809082
-1922.687866,680.2069092,-754.8496094
-1925.44165,677.6605225,-754.9058838
-1928.238892,675.2478638,-754.9735718
-1931.089478,672.9604492,-755.046814
-1934.008057,670.795105,-755.1206665
-1937.009888,668.7553711,-755.194458
-1940.103882,666.8504028,-755.2758179
-1943.290649,665.095459,-755.380127
-1946.562012,663.513916,-755.5269775
-1949.904297,662.1398315,-755.7366943
-1953.297852,661.0181274,-756.0273438
-1956.718994,660.2018433,-756.411438
-1960.144165,659.7454224,-756.8890991
-1963.556763,659.6950073,-757.4381104
-1966.949585,660.0792236,-758.0111694
-1970.321167,660.9018555,-758.5495605
-1973.671387,662.1356201,-759.0011597
-1977.000488,663.7168579,-759.3330078
-1980.309937,665.5450439,-759.538208
-1983.599365,667.4902954,-759.6380005
-1986.862793,669.4093628,-759.6763306
-1990.086792,671.1661987,-759.7090454
-1993.250244,672.651062,-759.7907715
-1996.327148,673.7921753,-759.9638672
-1999.292603,674.5584717,-760.2532349
-2002.126343,674.9561768,-760.664856
-2004.816162,675.0217896,-761.1895752
-2007.358643,674.8158569,-761.8071289
-2009.759033,674.4154663,-762.4890137
-2012.030273,673.9071655,-763.2011719
-2014.190796,673.3796997,-763.9064941
-2016.265503,672.9164429,-764.5681763
-2018.281372,672.588501,-765.1542969
-2020.265259,672.4455566,-765.6427002
-2022.238647,672.508728,-766.0233765
-2024.213257,672.7672119,-766.2990112
-2026.189453,673.1802979,-766.4835815
-2028.154541,673.6862183,-766.598999
-2030.085205,674.213562,-766.6720581
-2031.95105,674.6934814,-766.7306519
-2033.721802,675.0705566,-766.8010864
-2035.374023,675.3098755,-766.9049683
-2036.893555,675.4000244,-767.0566406
-2038.27771,675.3511963,-767.2622681
-2039.534912,675.1907349,-767.5187988
-2040.68457,674.9581909,-767.8143311
-2041.751709,674.6990356,-768.1296997
-2042.762939,674.4578857,-768.4416504
-2043.740845,674.272644,-768.7263794
-2044.70166,674.1691895,-768.9639282
-2045.653687,674.1577148,-769.1427002
-2046.59668,674.2313843,-769.262085
-2047.524536,674.3699341,-769.3325195
-2048.427734,674.545166,-769.3718262
-2049.297852,674.7266235,-769.3998413
-2050.128906,674.8874512,-769.4333496
-2050.916748,675.0075073,-769.4839478
-2051.662109,675.0754395,-769.5575562
-2052.366943,675.0884399,-769.6560669
-2053.034912,675.0510254,-769.7783813
-2053.671875,674.9728394,-769.9214478
-2054.285889,674.8670044,-770.0803833
-2054.885986,674.7478027,-770.2489014
-2055.483643,674.6299438,-770.4190674
-2056.089111,674.5278931,-770.5828247
-2056.710693,674.4542847,-770.7327271
-2057.351807,674.4179688,-770.8638916
-2058.01001,674.4214478,-770.9751587
-2058.677246,674.4605103,-771.069458
-2059.341553,674.5248413,-771.1538086
-2059.98877,674.6004639,-771.2373657
-2060.607666,674.6724243,-771.3283691
-2061.190918,674.7280273,-771.4329834
-2061.738037,674.7593384,-771.5531006
-2062.253662,674.7643433,-771.6870117
-2062.74585,674.7462769,-771.8302612
-2063.2229,674.7121582,-771.9781494
-2063.69043,674.6709595,-772.1265259
-2064.151611,674.6315308,-772.2717896
-2064.606689,674.6011353,-772.4110107
-2065.053467,674.5841675,-772.5415649
-2065.488037,674.5820923,-772.6608887
-2065.907715,674.5939331,-772.7662354
-2066.309326,674.6174316,-772.8545532
-2066.690918,674.6497192,-772.9223633
-2067.050293,674.6875,-772.9668579
-2067.385254,674.7268066,-772.986145
-2067.692627,674.7635498,-772.9799194
-2067.968506,674.7940063,-772.9509888
-2068.209473,674.8150635,-772.9051514
-2068.412598,674.8249512,-772.8494873
-2068.577148,674.8241577,-772.7897949
-2068.704102,674.8146973,-772.7302856
-2068.79541,674.8000488,-772.6734619
-2068.854004,674.7841797,-772.6206055
-2068.883301,674.7705078,-772.5723877
-2068.885498,674.7613525,-772.5297852
-2068.861572,674.7566528,-772.4937744
-2068.811279,674.7539063,-772.4644775
-2068.734619,674.7492065,-772.4407349
-2068.630615,674.7391968,-772.4210815
-2068.500488,674.7231445,-772.4044189
-2068.346191,674.7023926,-772.3902588
-2068.17041,674.6800537,-772.3790894
-2067.976807,674.6586304,-772.3709717
-2067.768311,674.6387939,-772.3657227
-2067.546387,674.619812,-772.362793
-2067.312256,674.6003418,-772.3612061
-2067.066162,674.5795288,-772.3591919
-2066.808105,674.557251,-772.3549194
-2066.537842,674.5344849,-772.3467407
-2066.253662,674.5122681,-772.3337402
-2065.953613,674.4911499,-772.3157959
-2065.635254,674.4701538,-772.2926636
-2065.294922,674.4477539,-772.2642822
-2064.928955,674.4219971,-772.2310181
-2064.533691,674.3917236,-772.1940918
-2064.105713,674.3565674,-772.1554565
-2063.64209,674.3170776,-772.1167603
-2063.141113,674.2739868,-772.0788574
-2062.60083,674.227478,-772.0411987
-2062.020752,674.1775513,-772.0026245
-2061.400635,674.1242676,-771.961731
-2060.740479,674.0683594,-771.9176025
-2060.039551,674.0106201,-771.8696899
-2059.296631,673.9509277,-771.817627
-2058.508545,673.8881226,-771.7617798
-2057.673584,673.819519,-771.7025146
-2056.788574,673.7421265,-771.6399536
-2055.851074,673.6534424,-771.5739136
-2054.859619,673.5518188,-771.5042725
-2053.812256,673.4365234,-771.4314575
-2052.70752,673.307373,-771.3566895
-2051.544434,673.1641846,-771.2810059
-2050.322021,673.0064087,-771.2053223
-2049.040283,672.8339233,-771.1298828
-2047.699829,672.6469116,-771.0544434
-2046.300781,672.4455566,-770.9785156
-2044.842896,672.2302246,-770.9016724
-2043.325806,672.0007324,-770.8231812
-2041.748169,671.7575073,-770.7424316
-2040.110718,671.5015869,-770.6585693
-2038.413452,671.2342529,-770.5705566
-2036.65918,670.9557495,-770.4752808
-2034.850708,670.6642456,-770.3668213
-2032.992554,670.3550415,-770.2374268
-2031.084961,670.020874,-770.0809937
-2029.124146,669.6533813,-769.8956909
-2027.104736,669.2470703,-769.6826782
-2025.02124,668.800293,-769.4437256
-2022.869995,668.3145142,-769.1799927
-2020.646973,667.7926025,-768.8919678
-2018.349609,667.237915,-768.5797119
-2015.974609,666.6544189,-768.2434082
-2013.521362,666.0469971,-767.8832397
-2010.988892,665.421875,-767.4985962
-2008.378906,664.7858276,-767.0878296
-2005.693115,664.1459961,-766.6486206
-2002.935303,663.5097046,-766.1783447
-2000.109619,662.885498,-765.6744995
-1997.220337,662.2831421,-765.1352539
-1994.272095,661.7125854,-764.5594482
-1991.268066,661.1821289,-763.9465332
-1988.208496,660.6955566,-763.2962036
-1985.092285,660.25177,-762.6085815
-1981.917847,659.8453369,-761.8845215
-1978.685059,659.4702759,-761.1260376
-1975.39624,659.1227417,-760.3364868
-1972.055786,658.8007202,-759.5198364
-1968.66687,658.5027466,-758.6813354
-1965.230225,658.2262573,-757.8273926
-1961.744629,657.9677734,-756.9656982
-1958.20813,657.7249756,-756.1044312
-1954.62085,657.4995117,-755.2514038
-1950.986206,657.2994995,-754.4134521
-1947.309448,657.1380005,-753.595459
-1943.59729,657.0315552,-752.7997437
-1939.857788,656.9977417,-752.0272827
-1936.099487,657.055542,-751.2776489
-1932.332642,657.2255249,-750.5510254
-1928.566528,657.5292969,-749.8509521
-1924.80542,657.9883423,-749.1876831
-1921.049683,658.6226807,-748.576355
-1917.295654,659.449585,-748.0330811
-1913.539429,660.4799194,-747.5717163
-1909.778931,661.71698,-747.2017212
-1906.016235,663.1584473,-746.9258423
-1902.25708,664.8012695,-746.7393188
-1898.508057,666.6444702,-746.6293335
-1894.773071,668.6894531,-746.5789795
-1891.051392,670.9380493,-746.5698242
-1887.341431,673.3917236,-746.5828857
-1883.64209,676.0505981,-746.6000366
-1879.953369,678.9127197,-746.6077881
-1876.275879,681.9769897,-746.5979614
-1872.612915,685.2456055,-746.565918
-1868.969604,688.723877,-746.5101318
-1865.352661,692.4174194,-746.4321899
-1861.770996,696.3291626,-746.3358765
-1858.236206,700.4581909,-746.2244263
-1854.76355,704.8005981,-746.0992432
-1851.36438,709.3504028,-745.9637451
-1848.038452,714.0994873,-745.8280029
-1844.773682,719.0363159,-745.7072754
-1841.555542,724.1453857,-745.6141968
-1838.373413,729.4075928,-745.553894
-1835.223633,734.8002319,-745.5239868
-1832.108154,740.2991943,-745.5167236
-1829.032715,745.8815308,-745.5221558
-1825.997803,751.5274658,-745.5345459
-1822.995239,757.2199707,-745.555603
-1820.011108,762.9436646,-745.5913086
-1817.032227,768.6838989,-745.6478882
-1814.050293,774.4276123,-745.7293701
-1811.063843,780.1647949,-745.8347168
-1808.079346,785.8901367,-745.9552612
-1805.103638,791.6047363,-746.0789795
-1802.12915,797.3163452,-746.2001953
-1799.13501,803.0362549,-746.3206787
-1796.103516,808.7738647,-746.442627
-1793.033936,814.5326538,-746.5610962
-1789.943604,820.3099365,-746.663147
-1786.855347,826.0992432,-746.7346191
-1783.781616,831.8955078,-746.7680664
-1780.723877,837.6962891,-746.7631836
-1777.68689,843.5007324,-746.7199097
-1774.67749,849.3096313,-746.6381836
-1771.69043,855.1270752,-746.5252686
-1768.705811,860.9587402,-746.3959961
-1765.703979,866.8066406,-746.2653809
-1762.674683,872.664917,-746.1456299
-1759.617188,878.5200195,-746.0479126
-1756.53479,884.3568115,-745.9816284
-1753.432251,890.1641235,-745.951416
-1750.315552,895.9376221,-745.9552002
-1747.191895,901.6779175,-745.9852295
-1744.07251,907.385498,-746.0303345
-1740.97229,913.0578003,-746.0789795
-1737.900513,918.6914063,-746.1239624
-1734.851929,924.284729,-746.1655273
-1731.81311,929.8380127,-746.2076416
-1728.775513,935.350647,-746.2518921
-1725.738525,940.819397,-746.2966919
-1722.710449,946.2375488,-746.3377686
-1719.704468,951.595459,-746.3704834
-1716.728394,956.8828735,-746.3948975
-1713.775757,962.0905762,-746.4199829
-1710.831787,967.2090454,-746.4596558
-1707.883667,972.2270508,-746.5258179
-1704.922485,977.1325073,-746.6255493
-1701.943115,981.9143066,-746.7589722
-1698.94458,986.5639038,-746.9196167
-1695.932129,991.0762939,-747.0947266
-1692.918335,995.449707,-747.2675781
-1689.919434,999.6846313,-747.4215088
-1686.946411,1003.782227,-747.5466309
-1684.001221,1007.742981,-747.6418457
-1681.078979,1011.564819,-747.7139282
-1678.175415,1015.243469,-747.7729492
-1675.291992,1018.771729,-747.8283691
-1672.432739,1022.141052,-747.888855
-1669.599243,1025.342773,-747.9622192
-1666.789673,1028.370239,-748.0544434
-1664.002319,1031.220215,-748.1679688
-1661.238159,1033.894897,-748.3009033
-1658.500488,1036.39917,-748.4487915
-1655.793335,1038.740845,-748.6065063
-1653.121094,1040.92627,-748.7684937
-1650.488037,1042.958984,-748.9302979
-1647.897339,1044.838013,-749.0896606
-1645.350586,1046.559082,-749.2454224
-1642.848877,1048.115845,-749.3968506
-1640.392578,1049.503296,-749.5427246
-1637.982178,1050.720337,-749.6814575
-1635.619141,1051.770874,-749.8094482
-1633.306152,1052.664307,-749.9215088
-1631.046875,1053.416138,-750.0131226
-1628.843994,1054.045288,-750.0840454
-1626.699097,1054.572876,-750.140625
-1624.613892,1055.018433,-750.1955566
-1622.588745,1055.396606,-750.2653198
-1620.622681,1055.718384,-750.3660278
-1618.712402,1055.990479,-750.5093994
-1616.853638,1056.217773,-750.7001343
-1615.043091,1056.404053,-750.9344482
-1613.280029,1056.553223,-751.2005005
-1611.566528,1056.669434,-751.4810181
-1609.906494,1056.756714,-751.7561035
-1608.303711,1056.818359,-752.0061646
-1606.76123,1056.858154,-752.215271
-1605.280273,1056.881226,-752.3746948
-1603.861938,1056.894897,-752.482666
-1602.507446,1056.908203,-752.5441284
-1601.217896,1056.930664,-752.5680542
-1599.994019,1056.971558,-752.5657349
-1598.835693,1057.038086,-752.5487671
-1597.741821,1057.134399,-752.5279541
-1596.709839,1057.26062,-752.5123901
-1595.737061,1057.412109,-752.5094604
-1594.820068,1057.581055,-752.5233765
-1593.956543,1057.757202,-752.5549927
-1593.143677,1057.929932,-752.6011963
-1592.380005,1058.0896,-752.6563721
-1591.665161,1058.229126,-752.7131958
-1591.000122,1058.344849,-752.7636108
-1590.386353,1058.436401,-752.8009033
-1589.825684,1058.505981,-752.8209839
-1589.320068,1058.557617,-752.822937
-1588.871582,1058.595337,-752.8079224
-1588.481812,1058.622681,-752.7789917
-1588.150879,1058.641479,-752.7410278
-1587.878296,1058.653076,-752.7010498
-1587.662231,1058.657593,-752.666626
-1587.501587,1058.655151,-752.6445923
-1587.396118,1058.646118,-752.640564
-1587.346191,1058.630493,-752.6578369
-1587.353149,1058.608032,-752.6968994
-1587.417725,1058.576904,-752.7550049
-1587.541626,1058.535034,-752.8268433
-1587.726318,1058.479858,-752.9057617
-1587.973877,1058.409424,-752.9854126
-1588.286011,1058.323242,-753.0605469
-1588.663086,1058.2229,-753.1273804
-1589.104736,1058.111938,-753.1838379
-1589.608765,1057.994019,-753.229126
-1590.173096,1057.870728,-753.2626953
-1590.796387,1057.741333,-753.28479
-1591.478516,1057.602295,-753.2962036
-1592.220459,1057.448364,-753.2997437
-1593.023804,1057.273071,-753.2994995
-1593.890625,1057.071045,-753.3010254
-1594.822144,1056.837769,-753.3101196
-1595.818848,1056.571167,-753.3321533
-1596.881104,1056.270874,-753.371521
-1598.008057,1055.938232,-753.4307251
-1599.198364,1055.575073,-753.5093994
-1600.449585,1055.184448,-753.6036377
-1601.759644,1054.768799,-753.7068481
-1603.12793,1054.330322,-753.8110352
-1604.556519,1053.869263,-753.9084473
-1606.049805,1053.384399,-753.9929199
-1607.612305,1052.87146,-754.0616455
-1609.247925,1052.325562,-754.1149292
-1610.960083,1051.741821,-754.156189
-1612.751099,1051.116211,-754.19104
-1614.621948,1050.444458,-754.2269287
-1616.571777,1049.719971,-754.2722168
-1618.598022,1048.932983,-754.3339844
-1620.696533,1048.069702,-754.4172974
-1622.862671,1047.112671,-754.5234985
-1625.089722,1046.042725,-754.6506958
-1627.370239,1044.841431,-754.7949829
-1629.696167,1043.493652,-754.9517212
-1632.058594,1041.990356,-755.1169434
-1634.449707,1040.32959,-755.2866821
-1636.864746,1038.51709,-755.4557495
-1639.300903,1036.563477,-755.6174927
-1641.756958,1034.482788,-755.7640991
-1644.232666,1032.290649,-755.8885498
-1646.728638,1030.003052,-755.9856567
-1649.245361,1027.63623,-756.0531616
-1651.782959,1025.208252,-756.0911255
-1654.340454,1022.739502,-756.100708
-1656.914917,1020.252319,-756.0828857
-1659.5,1017.769287,-756.0390625
-1662.090088,1015.31012,-755.9700928
-1664.682129,1012.888611,-755.8768311
-1667.27832,1010.51001,-755.7600708
-1669.885254,1008.167786,-755.6226807
-1672.511353,1005.843933,-755.4699707
-1675.166626,1003.50946,-755.3103027
-1677.859741,1001.129089,-755.1552124
-1680.59668,998.6671753,-755.0182495
-1683.379883,996.0928955,-754.9138794
-1686.209106,993.3843994,-754.8543701
-1689.084229,990.5291748,-754.8442993
-1692.007935,987.5224609,-754.8786621
-1694.981567,984.3635254,-754.9462891
-1698.000244,981.0532837,-755.0357056
-1701.052734,977.5912476,-755.1381226
-1704.128662,973.9744263,-755.2457886
-1707.221558,970.1976929,-755.3518066
-1710.327026,966.2554321,-755.4497681
-1713.44165,962.1439209,-755.5344849
-1716.560669,957.862915,-755.6003418
-1719.680176,953.4176636,-755.6411743
-1722.797852,948.8184204,-755.6489258
-1725.912231,944.0786743,-755.6148071
-1729.023193,939.2124023,-755.5318604
-1732.130615,934.2321777,-755.3989258
-1735.233643,929.1485596,-755.2227783
-1738.328247,923.9702759,-755.0186768
-1741.407715,918.7056274,-754.8074341
-1744.46167,913.3638916,-754.6096802
-1747.478638,907.9561157,-754.4398804
-1750.44873,902.4951782,-754.3017578
-1753.366333,896.9949951,-754.1882935
-1756.230347,891.4701538,-754.0845947
-1759.042114,885.9342041,-753.9738159
-1761.803711,880.3967896,-753.8418579
-1764.518799,874.8629761,-753.680603
-1767.19165,869.3335571,-753.4885254
-1769.82605,863.8081055,-753.2692871
-1772.424927,858.2874756,-753.0300903
-1774.988892,852.776001,-752.7796021
-1777.517456,847.2816162,-752.5267334
-1780.01001,841.81427,-752.2806396
-1782.466797,836.3844604,-752.0507202
-1784.888672,831.0023193,-751.847229
-1787.277222,825.6759033,-751.6798096
-1789.633423,820.411499,-751.5565796
-1791.955933,815.2131348,-751.4837036
-1794.241333,810.0842896,-751.463501
-1796.484985,805.0279541,-751.4928589
-1798.682739,800.0482178,-751.5614014
-1800.833008,795.1506958,-751.6520996
-1802.936035,790.342041,-751.7445068
-1804.992432,785.6276855,-751.8207397
-1807.001953,781.0109863,-751.8682861
-1808.968262,776.494812,-751.8791504
-1810.900391,772.0826416,-751.8479614
-1812.80957,767.777832,-751.7749023
-1814.705688,763.5828247,-751.6661987
-1816.60022,759.5012207,-751.5286865
-1818.506104,755.5387573,-751.3676758
-1820.428955,751.7012939,-751.1917114
-1822.366089,747.992981,-751.0123901
-1824.312988,744.4147339,-750.8389893
-1826.26709,740.9625244,-750.6779175
-1828.225464,737.6274414,-750.5371704
-1830.188354,734.3978882,-750.4252319
-1832.160278,731.2631836,-750.3505249
-1834.149048,728.213501,-750.3203125
-1836.166138,725.2433472,-750.3373413
-1838.226685,722.3532104,-750.3961792
-1840.342285,719.5458984,-750.4894409
-1842.513672,716.8195801,-750.6154785
-1844.732056,714.1651611,-750.7791138
-1846.987305,711.5717163,-750.9836426
-1849.27356,709.0322876,-751.2253418
-1851.589722,706.545166,-751.4942017
-1853.934692,704.1124268,-751.7781982
-1856.306763,701.7373047,-752.0669556
-1858.703003,699.421936,-752.3526611
-1861.120361,697.1674194,-752.6283569
-1863.557373,694.975647,-752.8862305
-1866.013184,692.8479614,-753.1217041
-1868.488159,690.7843018,-753.3338013
-1870.985474,688.78479,-753.5223389
-1873.510986,686.8498535,-753.6885986
-1876.068604,684.9771118,-753.8388672
-1878.658203,683.1606445,-753.9841919
-1881.277588,681.3945923,-754.133728
-1883.924927,679.6768799,-754.2915649
-1886.59729,678.0076904,-754.4584961
-1889.290039,676.3880615,-754.6347656
-1891.997559,674.8204346,-754.8190308
-1894.715576,673.3098145,-755.0070801
-1897.441162,671.8618774,-755.1911621
-1900.172729,670.4805298,-755.3632202
-1902.910278,669.1669312,-755.5170288
-1905.654785,667.9204102,-755.6500244
-1908.407593,666.7381592,-755.7640381
-1911.170044,665.6156006,-755.8637695
-1913.943115,664.5465698,-755.9558716
-1916.727783,663.5250854,-756.046936
-1919.526855,662.5463257,-756.1414795
-1922.344727,661.6077881,-756.2420654
-1925.187134,660.7111816,-756.3502197
-1928.059326,659.8639526,-756.4674683
-1930.965088,659.0785522,-756.5955811
-1933.905396,658.3716431,-756.7366943
-1936.878418,657.7626343,-756.8937988
-1939.880249,657.272522,-757.0696411
-1942.905884,656.9232788,-757.2654419
-1945.95105,656.7359619,-757.479187
-1949.011719,656.7290039,-757.7050781
-1952.084961,656.9143066,-757.9342651
-1955.16687,657.2938843,-758.1566162
-1958.253296,657.8572998,-758.362793
-1961.340088,658.5814819,-758.5465698
-1964.422241,659.4330444,-758.7059326
-1967.494263,660.3738403,-758.8425293
-1970.549194,661.3652344,-758.960022
-1973.578125,662.37146,-759.0628052
-1976.569946,663.3601074,-759.1549072
-1979.512939,664.3022461,-759.2394409
-1982.396729,665.1740723,-759.3182983
-1985.213135,665.9586792,-759.392334
-1987.95752,666.6480103,-759.4622192
-1990.62854,667.2431641,-759.5283813
-1993.227051,667.751709,-759.5923462
-1995.755737,668.1843262,-759.6577148
-1998.218262,668.5526123,-759.730835
-2000.619751,668.8684692,-759.8190308
-2002.967773,669.1444702,-759.9287109
-2005.271362,669.3943481,-760.0627441
-2007.540649,669.6318359,-760.2192383
-2009.784424,669.8690796,-760.3927002
-2012.007813,670.114563,-760.5761108
-2014.212036,670.3709717,-760.763855
-2016.39209,670.6345215,-760.9543457
-2018.538086,670.8956909,-761.1512451
-2020.63623,671.1412964,-761.3619385
-2022.671387,671.3587036,-761.5952148
-2024.630981,671.5394897,-761.8582764
-2026.506592,671.6820068,-762.15448
-2028.296143,671.791626,-762.482605
-2030.001831,671.8796997,-762.8372192
-2031.629028,671.9597778,-763.2092896
-2033.185669,672.0447388,-763.5875854
-2034.678833,672.1428223,-763.9598999
-2036.114868,672.2564697,-764.3156128
-2037.498657,672.3821411,-764.6474609
-2038.833252,672.5124512,-764.9545898
-2040.120728,672.6384888,-765.2432251
-2041.360718,672.7520752,-765.5252686
-2042.551636,672.8463745,-765.814209
-2043.690308,672.9171753,-766.1213989
-2044.775146,672.963562,-766.4533691
-2045.806519,672.987854,-766.8116455
-2046.786255,672.9946289,-767.1929932
-2047.717041,672.9892578,-767.5910034
-2048.602295,672.9772949,-767.9973755
-2049.444824,672.9633179,-768.4022217
-2050.248047,672.9500122,-768.7953491
-2051.016357,672.9382935,-769.1656494
-2051.75415,672.9291382,-769.5046997
-2052.465576,672.9257202,-769.8088379
-2053.154785,672.9326172,-770.078186
-2053.824707,672.9533691,-770.3138428
-2054.478271,672.989502,-770.5164795
-2055.116943,673.0401611,-770.687439
-2055.742676,673.1017456,-770.8286133
-2056.356689,673.1687622,-770.9433594
-2056.960938,673.234375,-771.0366211
-2057.555908,673.2922974,-771.1156616
-2058.140625,673.3375854,-771.1894531
-2058.714111,673.3682861,-771.2669067
-2059.274414,673.385498,-771.3551636
-2059.820068,673.3938599,-771.4589844
-2060.35083,673.3998413,-771.5803223
-2060.865967,673.4104004,-771.7171021
-2061.364746,673.4315186,-771.8632813
-2061.844727,673.4665527,-772.0097656
-2062.302002,673.5158691,-772.1459961
-2062.732178,673.5774536,-772.2633667
-2063.130615,673.6473999,-772.3563843
-2063.493408,673.720459,-772.4232178
-2063.817627,673.7905884,-772.4657593
-2064.102051,673.8525391,-772.4881592
-2064.346436,673.90271,-772.4962769
-2064.552734,673.9396973,-772.4962769
-2064.724121,673.9637451,-772.4951782
-2064.864746,673.9770508,-772.4991455
-2064.979004,673.9827881,-772.5120239
-2065.070068,673.9844971,-772.5343018
-2065.140381,673.9849854,-772.5626221
-2065.190186,673.9855957,-772.5916748
-2065.219727,673.9866333,-772.6156616
-2065.228027,673.9882202,-772.6303711
-2065.214844,673.9899902,-772.633728
-2065.178711,673.991333,-772.6255493
-2065.119385,673.9916992,-772.6063843
-2065.036133,673.9904785,-772.5780029
-2064.928711,673.9876099,-772.5427856
-2064.797852,673.9840088,-772.5036621
-2064.645752,673.9815674,-772.4628906
-2064.475586,673.9823608,-772.4216309
-2064.29126,673.9882202,-772.3792725
-2064.095703,673.9994507,-772.3336792
-2063.892334,674.0127563,-772.2825928
-2063.682129,674.0218506,-772.2237549
-2063.465332,674.0219116,-772.1581421
-2063.239502,674.0127563,-772.0903931
-2063.003174,673.9968262,-772.0255737
-2062.754639,673.9761353,-771.9665527
-2062.49292,673.9515381,-771.9138184
-2062.219727,673.9237671,-771.8658447
-2061.937012,673.8936768,-771.8209839
-2061.646729,673.8626099,-771.7785645
-2061.350586,673.8321533,-771.7390137
-2061.047852,673.8032837,-771.7034912
-2060.738037,673.7766724,-771.6725464
-2060.418457,673.7531128,-771.6467896
-2060.087402,673.7337036,-771.6260376
-2059.742432,673.7192993,-771.6090088
-2059.382568,673.7099609,-771.5928955
-2059.005615,673.7045288,-771.5731201
-2058.609619,673.7008667,-771.5456543
-2058.191895,673.6968384,-771.5079346
-2057.751465,673.6904297,-771.4605103
-2057.288086,673.6800537,-771.4067993
-2056.800293,673.6646729,-771.3519897
-2056.286865,673.6439819,-771.3014526
-2055.74585,673.6182251,-771.2595825
-2055.174561,673.5872192,-771.2294922
-2054.570801,673.5505371,-771.2127686
-2053.932861,673.5079956,-771.2098389
-2053.258301,673.460144,-771.2202759
-2052.54541,673.4076538,-771.2425537
-2051.791992,673.350769,-771.2740479
-2050.995605,673.2894287,-771.3106079
-2050.153564,673.2227783,-771.3469849
-2049.265625,673.1494141,-771.3780518
-2048.330811,673.067627,-771.3991699
-2047.350098,672.9765015,-771.4071655
-2046.323242,672.8759766,-771.4014282
-2045.250854,672.7663574,-771.3840332
-2044.132813,672.6483154,-771.3590088
-2042.967407,672.5218506,-771.3311157
-2041.751343,672.3859253,-771.3043823
-2040.47937,672.2384644,-771.2808228
-2039.147095,672.0772705,-771.2599487
-2037.750122,671.9006958,-771.2385864
-2036.285278,671.7079468,-771.2134399
-2034.75061,671.4983521,-771.1816406
-2033.145386,671.2711792,-771.1422729
-2031.470703,671.0255127,-771.0952759
-2029.728516,670.7599487,-771.0409546
-2027.923462,670.4711304,-770.9780884
-2026.059082,670.1546631,-770.9043579
-2024.138794,669.8053589,-770.817627
-2022.161621,669.4190063,-770.7178955
-2020.123901,668.9928589,-770.6071777
-2018.022217,668.5270386,-770.4875488
-2015.855957,668.024292,-770.3598633
-2013.626709,667.4880981,-770.2233887
-2011.337402,666.9217529,-770.0770264
-2008.991577,666.3266602,-769.9191895
-2006.59314,665.7025146,-769.7484741
-2004.143188,665.0482178,-769.5632324
-2001.640747,664.3625488,-769.3613281
-1999.081299,663.6445313,-769.1389771
-1996.459351,662.8932495,-768.8908081
-1993.768799,662.1098022,-768.6104126
-1991.005249,661.2976685,-768.2915039
-1988.16748,660.4639893,-767.9276733
-1985.256836,659.619751,-767.5127563
-1982.276978,658.7780762,-767.0408325
-1979.232056,657.9537354,-766.5064087
-1976.126953,657.1627808,-765.9055786
-1972.966431,656.4222412,-765.2368164
-1969.754272,655.74823,-764.5009155
-1966.492065,655.1539307,-763.699585
-1963.180054,654.6490479,-762.8343506
-1959.817749,654.2406616,-761.9071655
-1956.405273,653.9344482,-760.920166
-1952.943726,653.7369385,-759.8757935
-1949.435303,653.6559448,-758.776062
-1945.881226,653.6986084,-757.6240234
-1942.28125,653.8673706,-756.4251099
-1938.633057,654.1567993,-755.1889038
-1934.935181,654.5522461,-753.9295044
-1931.189331,655.0339355,-752.6660767
-1927.40271,655.5823975,-751.4224243
-1923.586792,656.1847534,-750.2258911
-1919.755493,656.8370361,-749.104248
-1915.92395,657.5447388,-748.0822754
-1912.105591,658.3222656,-747.1794434
-1908.310913,659.190918,-746.4082642
-1904.546143,660.1775513,-745.7739258
-1900.813965,661.3121338,-745.2741089
-1897.114136,662.6246338,-744.8985596
-1893.443359,664.1412354,-744.6334229
-1889.795288,665.8817749,-744.4642944
-1886.166016,667.8601685,-744.3745728
-1882.557495,670.0855713,-744.3425903
-1878.974487,672.5600586,-744.3441162
-1875.418945,675.2764282,-744.3585205
-1871.890503,678.2207031,-744.3686523
-1868.390991,681.3790283,-744.3569946
-1864.924072,684.7418213,-744.3069458
-1861.489136,688.303833,-744.2097168
-1858.080688,692.0632935,-744.0657959
-1854.697266,696.020874,-743.8780518
-1851.345581,700.1785889,-743.647583
-1848.033569,704.5376587,-743.3780518
-1844.760864,709.0956421,-743.0825195
-1841.516357,713.8448486,-742.7830811
-1838.288818,718.7730713,-742.5038452
-1835.072388,723.8638916,-742.2642212
-1831.87085,729.0952759,-742.0757446
-1828.696167,734.4370728,-741.9414673
-1825.563965,739.8464355,-741.8599243
-1822.492432,745.2606201,-741.8289795
-1819.512329,750.5878296,-741.8439331
-1816.677856,755.7000122,-741.8947754
-1814.067139,760.4319458,-741.9674072
-1811.773315,764.5946045,-742.0473633
-1808.789063,770.1621704,-742.3217163
-1805.758301,775.7740479,-742.6107178
-1802.864136,780.758667,-742.8118896
-1799.805786,786.0552979,-743.0010986
-1796.664551,791.5236206,-743.1707764
-1793.498291,797.0648804,-743.3117676
-1790.336304,802.6184692,-743.4190063
-1787.179688,808.1539307,-743.4937744
-1784.010376,813.6621704,-743.543335
-1780.803833,819.1471558,-743.5764771
-1777.545288,824.6182251,-743.5974121
-1774.234741,830.085083,-743.6028442
-1770.885864,835.5550537,-743.5829468
-1767.51709,841.0335083,-743.5267334
-1764.144897,846.5233765,-743.4285278
-1760.780273,852.0237427,-743.2900391
-1757.424561,857.5280762,-743.1220093
-1754.072998,863.0240479,-742.9408569
-1750.724365,868.4985962,-742.7593994
-1747.379395,873.946167,-742.5841064
-1744.030151,879.3746338,-742.4192505
-1740.665771,884.7996826,-742.267395
-1737.28125,890.2347412,-742.1298828
-1733.878296,895.6867065,-742.0079956
-1730.46167,901.1569214,-741.9026489
-1727.036743,906.644165,-741.8134155
-1723.608276,912.1463623,-741.7374268
-1720.179688,917.6608887,-741.6721191
-1716.752808,923.1841431,-741.6161499
-1713.328735,928.7107544,-741.5704346
-1709.908691,934.2337646,-741.5362549
-1706.493286,939.7453003,-741.5140381
-1703.082275,945.2372437,-741.5037842
-1699.67395,950.7009277,-741.5054932
-1696.267334,956.1269531,-741.519043
-1692.861572,961.5036621,-741.5441284
-1689.457275,966.8169556,-741.5797729
-1686.055786,972.0507813,-741.6257324
-1682.660645,977.1880493,-741.6832275
-1679.278809,982.2116699,-741.7539063
-1675.925049,987.1051025,-741.8372192
-1672.619873,991.8536377,-741.9290771
-1669.376953,996.4483032,-742.0270996
-1666.192261,1000.887451,-742.1348877
-1663.052124,1005.173889,-742.2579956
-1659.947144,1009.310425,-742.3984985
-1656.87439,1013.298828,-742.5552979
-1653.834229,1017.138916,-742.7255859
-1650.829468,1020.827454,-742.9078979
-1647.862305,1024.359375,-743.1035156
-1644.932495,1027.727173,-743.3165894
-1642.038574,1030.921753,-743.5531616
-1639.178467,1033.932373,-743.8202515
-1636.351563,1036.748657,-744.1228638
-1633.560791,1039.360962,-744.4611206
-1630.815674,1041.763184,-744.828186
-1628.129395,1043.951782,-745.2122192
-1625.513916,1045.928345,-745.6001587
-1622.975342,1047.69812,-745.9810181
-1620.514771,1049.271606,-746.3461914
-1618.130127,1050.663574,-746.6900024
-1615.817993,1051.891357,-747.0094604
-1613.575073,1052.975342,-747.3040771
-1611.398193,1053.937134,-747.5751953
-1609.28418,1054.79895,-747.824707
-1607.230591,1055.581055,-748.0545044
-1605.235596,1056.300537,-748.2652588
-1603.299194,1056.968872,-748.4555664
-1601.423218,1057.591064,-748.6230469
-1599.610596,1058.165161,-748.7644043
-1597.86438,1058.68457,-748.8763428
-1596.185791,1059.139771,-748.9564209
-1594.57312,1059.523193,-749.0041504
-1593.022583,1059.831543,-749.0214844
-1591.53125,1060.067261,-749.0127563
-1590.096191,1060.238037,-748.9835815
-1588.715698,1060.355591,-748.93927
-1587.388062,1060.432983,-748.8832397
-1586.112061,1060.483398,-748.8164673
-1584.887329,1060.519775,-748.7393799
-1583.714233,1060.552979,-748.65271
-1582.592896,1060.592041,-748.5578613
-1581.521973,1060.643433,-748.4559937
-1580.499634,1060.710938,-748.3474731
-1579.523804,1060.796509,-748.2324219
-1578.592773,1060.89917,-748.1104126
-1577.705688,1061.015625,-747.9811401
-1576.862549,1061.140381,-747.8441162
-1576.064819,1061.265503,-747.6984253
-1575.314941,1061.383057,-747.5431519
-1574.615112,1061.485107,-747.3778076
-1573.967529,1061.566406,-747.2025146
-1573.372925,1061.624512,-747.0187378
-1572.831421,1061.660278,-746.8283081
-1572.342407,1061.677124,-746.6339111
-1571.905029,1061.680542,-746.4384766
-1571.518921,1061.67627,-746.2442017
-1571.18396,1061.670044,-746.0527954
-1570.900269,1061.666626,-745.8660889
-1570.668213,1061.668457,-745.6864014
-1570.488525,1061.675903,-745.5162354
-1570.36084,1061.687378,-745.3582153
-1570.284912,1061.700928,-745.2141113
-1570.259521,1061.714478,-745.0855103
-1570.283081,1061.726563,-744.9727783
-1570.354492,1061.736694,-744.874939
-1570.473267,1061.744507,-744.7897339
-1570.639282,1061.750732,-744.7142334
-1570.852539,1061.755615,-744.6450806
-1571.112793,1061.759521,-744.5783081
-1571.419312,1061.762573,-744.5097656
-1571.771606,1061.76355,-744.4356079
-1572.169678,1061.762207,-744.3540039
-1572.613281,1061.75708,-744.2653809
-1573.102417,1061.747437,-744.1730347
-1573.636597,1061.732422,-744.0823364
-1574.216064,1061.712036,-744
-1574.84021,1061.686157,-743.932373
-1575.509644,1061.653809,-743.8847046
-1576.224854,1061.613037,-743.8596802
-1576.987915,1061.560059,-743.8569946
-1577.801147,1061.489868,-743.8739014
-1578.666382,1061.396484,-743.9067993
-1579.585449,1061.275024,-743.9526978
-1580.560303,1061.122803,-744.0098267
-1581.592773,1060.938965,-744.0774536
-1582.685547,1060.724976,-744.156189
-1583.840454,1060.484253,-744.2474365
-1585.059204,1060.221558,-744.3533325
-1586.34314,1059.941528,-744.4749146
-1587.693604,1059.648193,-744.6123657
-1589.112549,1059.344849,-744.7643433
-1590.600952,1059.032349,-744.9287109
-1592.15979,1058.708984,-745.1028442
-1593.789185,1058.370605,-745.2852783
-1595.489136,1058.012207,-745.4763184
-1597.259521,1057.627441,-745.6781616
-1599.100098,1057.210205,-745.8938599
-1601.009521,1056.753906,-746.1255493
-1602.986328,1056.253174,-746.3738403
-1605.028564,1055.703247,-746.6373901
-1607.134644,1055.101318,-746.9130249
-1609.304443,1054.446167,-747.1965332
-1611.539307,1053.737061,-747.4833374
-1613.840332,1052.974609,-747.770752
-1616.208374,1052.158569,-748.0585327
-1618.641968,1051.28833,-748.3487549
-1621.138428,1050.361572,-748.6446533
-1623.692139,1049.375,-748.9500122
-1626.296875,1048.32312,-749.2678223
-1628.946167,1047.198486,-749.5999146
-1631.633667,1045.992798,-749.9456177
-1634.354614,1044.697632,-750.3010864
-1637.105469,1043.306274,-750.65979
-1639.88501,1041.816162,-751.0135498
-1642.693359,1040.229248,-751.354126
-1645.531982,1038.552612,-751.6741943
-1648.401733,1036.797607,-751.968689
-1651.303345,1034.978394,-752.2356567
-1654.236938,1033.107666,-752.4755249
-1657.202148,1031.193726,-752.6897583
-1660.195313,1029.237549,-752.8809814
-1663.210571,1027.233643,-753.0526733
-1666.245483,1025.172974,-753.2094116
-1669.303345,1023.04718,-753.3567505
-1672.390503,1020.850464,-753.5020142
-1675.511597,1018.580383,-753.6542358
-1678.66748,1016.238281,-753.8237305
-1681.853516,1013.829163,-754.020813
-1685.061523,1011.36084,-754.2533569
-1688.280518,1008.842529,-754.5232544
-1691.50061,1006.283142,-754.8254395
-1694.714233,1003.688293,-755.1489258
-1697.918213,1001.059937,-755.4781494
-1701.11438,998.3950806,-755.7955322
-1704.308594,995.6862793,-756.0834961
-1707.508179,992.9223633,-756.3289185
-1710.718506,990.0891724,-756.5256958
-1713.94104,987.1712036,-756.6766357
-1717.171387,984.1535645,-756.7923584
-1720.4021,981.0250854,-756.8882446
-1723.624756,977.7796021,-756.9800415
-1726.831543,974.4163208,-757.0803833
-1730.018799,970.9393921,-757.1969604
-1733.186523,967.3555908,-757.3305054
-1736.341553,963.6713257,-757.4732666
-1739.495972,959.8909912,-757.6115723
-1742.657227,956.0159302,-757.7340088
-1745.819458,952.0463257,-757.8375854
-1748.968262,947.9810181,-757.9256592
-1752.089478,943.8184204,-758.0030518
-1755.170044,939.5567627,-758.0726318
-1758.198975,935.1939697,-758.133606
-1761.168213,930.7284546,-758.1810913
-1764.074707,926.1589966,-758.2067871
-1766.922729,921.4844971,-758.1982422
-1769.723877,916.7035522,-758.1400146
-1772.495483,911.8152466,-758.0182495
-1775.251099,906.8205566,-757.8279419
-1777.992798,901.7238159,-757.578064
-1780.71582,896.5327148,-757.288208
-1783.415161,891.2579956,-756.9820557
-1786.086914,885.913269,-756.6821899
-1788.729126,880.5139771,-756.406189
-1791.341797,875.0758057,-756.1650391
-1793.93042,869.6130981,-755.9619751
-1796.505493,864.1363525,-755.7941895
-1799.075317,858.6515503,-755.6585083
-1801.641235,853.1588135,-755.5562744
-1804.203369,847.6532593,-755.4887695
-1806.766479,842.1269531,-755.4536133
-1809.332153,836.5720215,-755.4469604
-1811.893066,830.9841309,-755.46698
-1814.436401,825.3649902,-755.5119019
-1816.951294,819.7231445,-755.5767822
-1819.430542,814.0725098,-755.6522827
-1821.869507,808.4287109,-755.7260742
-1824.2677,802.8068848,-755.7831421
-1826.627563,797.2200317,-755.8081665
-1828.951538,791.6781616,-755.7894287
-1831.236206,786.1885986,-755.7238159
-1833.476685,780.7571411,-755.614624
-1835.671509,775.3883667,-755.4667358
-1837.824951,770.0859985,-755.2841797
-1839.947266,764.852417,-755.0703125
-1842.053833,759.6895142,-754.8295898
-1844.160645,754.5977173,-754.5706177
-1846.277588,749.5749512,-754.3078003
-1848.407837,744.6174316,-754.0579834
-1850.55127,739.723999,-753.8335571
-1852.708008,734.8979492,-753.6376343
-1854.878418,730.1477661,-753.4649658
-1857.061279,725.4888306,-753.3049316
-1859.250732,720.9463501,-753.1443481
-1861.432373,716.5583496,-752.9709473
-1863.578491,712.3775024,-752.7786865
-1865.645386,708.4711304,-752.5706177
-1867.575195,704.9219971,-752.3586426
-1869.301025,701.8235474,-752.1607666
-1871.361572,698.5435181,-752.0120239
-1873.436279,695.446167,-751.8898926
-1875.583618,692.4683838,-751.7947388
-1877.792236,689.62323,-751.7227783
-1880.051392,686.9239502,-751.6705933
-1882.349976,684.383728,-751.6347046
-1884.67688,682.015686,-751.6115723
-1887.021118,679.8330078,-751.5976563
-1889.371826,677.848877,-751.5894165
-1891.760498,676.0114746,-751.5853882
-1893.989746,674.6265869,-751.5704346
-1896.371338,673.182312,-751.5672607
-1898.836792,671.7459717,-751.5776367
-1901.340454,670.3626099,-751.5999756
-1903.858154,669.0552368,-751.6300659
-1906.381348,667.8283081,-751.6624146
-1908.911377,666.6740112,-751.6916504
-1911.453369,665.5774536,-751.7138672
-1914.014771,664.520813,-751.7284546
-1916.602661,663.4868164,-751.7393799
-1919.224731,662.4605713,-751.7545776
-1921.88916,661.4320068,-751.7838745
-1924.603149,660.3973389,-751.8371582
-1927.371826,659.3603516,-751.9249878
-1930.197021,658.3320923,-752.057312
-1933.077759,657.3291626,-752.2427368
-1936.009766,656.3720703,-752.4876099
-1938.987061,655.4844971,-752.7966919
-1942.001221,654.6939087,-753.171875
-1945.041748,654.0319824,-753.611084
-1948.095459,653.5331421,-754.1063232
-1951.147949,653.2321167,-754.6431274
-1954.185791,653.1598511,-755.201355
-1957.197632,653.3393555,-755.7570801
-1960.176392,653.7821045,-756.284668
-1963.119873,654.484375,-756.7596436
-1966.030518,655.425293,-757.1618652
-1968.912476,656.5661621,-757.4785767
-1971.770386,657.8526611,-757.7058716
-1974.606934,659.2190552,-757.848938
-1977.421143,660.593811,-757.9190674
-1980.208618,661.9068604,-757.9303589
-1982.960938,663.0952759,-757.8971558
-1985.668091,664.1080933,-757.8330078
-1988.319214,664.909729,-757.7515869
-1990.904297,665.4827271,-757.666748
-1993.415649,665.8290405,-757.5914307
-1995.847046,665.9694824,-757.5361328
-1998.195435,665.9400635,-757.5068359
-2000.460083,665.7872925,-757.5053711
-2002.643677,665.5641479,-757.5308228
-2004.752319,665.3273315,-757.5795898
-2006.795776,665.1340942,-757.6459961
-2008.785156,665.0367432,-757.722168
-2010.731812,665.0756226,-757.7987061
-2012.644653,665.2720947,-757.8668823
-2014.528198,665.6259155,-757.9207153
-2016.382813,666.1168213,-757.9594116
-2018.20459,666.7092896,-757.9890137
-2019.984863,667.3587646,-758.0223389
-2021.712891,668.0181885,-758.0780029
-2023.376343,668.6438599,-758.1781006
-2024.962524,669.2006836,-758.3446655
-2026.459839,669.6658936,-758.5959473
-2027.858887,670.0293579,-758.9424438
-2029.154663,670.2924194,-759.3845825
-2030.347778,670.4642334,-759.9121094
-2031.443726,670.5602417,-760.5054932
-2032.452271,670.5997925,-761.1392822
-2033.386108,670.6044312,-761.7858276
-2034.259277,670.5953369,-762.4189453
-2035.084595,670.5904541,-763.0166626
-2035.87207,670.6027832,-763.5635376
-2036.628662,670.6393433,-764.0512695
-2037.357056,670.7019043,-764.4783325
-2038.059082,670.7874146,-764.8474121
-2038.735962,670.8901978,-765.1627197
-2039.389038,671.0030518,-765.4281006
-2040.019897,671.1192017,-765.6464844
-2040.630981,671.2327881,-765.8197021
-2041.225098,671.3396606,-765.9489746
-2041.803955,671.4368286,-766.0358276
-2042.369751,671.5217896,-766.0836792
-2042.92334,671.5924683,-766.0981445
-2043.466431,671.6463623,-766.0859985
-2044.002197,671.682312,-766.0533447
-2044.535767,671.7011719,-766.0036621
-2045.071533,671.7067871,-765.9390259
-2045.610596,671.7053833,-765.8624268
-2046.148682,671.703064,-765.7786865
-2046.678467,671.7045288,-765.6932983
-2047.190796,671.7127686,-765.6110229
-2047.676025,671.7288208,-765.5358887
-2048.127197,671.7510376,-765.4713135
-2048.538818,671.7763062,-765.4197388
-2048.909668,671.8006592,-765.383606
-2049.23877,671.8206787,-765.3649902
-2049.5271,671.8343506,-765.3653564
-2049.775146,671.8413086,-765.3856812
-2049.982666,671.8421021,-765.4250488
-2050.151367,671.838501,-765.4818726
-2050.281738,671.8321533,-765.5531616
-2050.376465,671.8255005,-765.6347046
-2050.4375,671.8207397,-765.7209473
-2050.467773,671.8201904,-765.8057251
-2050.470215,671.8253784,-765.8830566
-2050.446777,671.8370361,-765.9480591
-2050.400391,671.8548584,-765.9974976
-2050.332275,671.8776855,-766.0296631
-2050.243652,671.9030762,-766.0439453
-2050.13623,671.9274292,-766.0397339
-2050.010742,671.9465942,-766.0167847
-2049.869873,671.9574585,-765.9755859
-2049.717285,671.9587402,-765.9173584
-2049.558105,671.9506226,-765.8453979
-2049.397949,671.9345093,-765.7642822
-2049.242432,671.9124756,-765.6802368
-2049.096436,671.8865356,-765.5995483
-2048.963379,671.8583984,-765.5274658
-2048.844727,671.8291016,-765.4665527
-2048.740723,671.7994385,-765.4174805
-2048.649902,671.7704468,-765.3795166
-2048.56958,671.7433472,-765.3515015
-2048.496094,671.7192383,-765.3319092
-2048.425293,671.6984253,-765.3186035
-2048.353027,671.680542,-765.3098145
-2048.275879,671.6650391,-765.3045044
-2048.190186,671.6513672,-765.302124
-2048.094727,671.6391602,-765.3028564
-2047.987549,671.6279907,-765.3071289
-2047.867188,671.6172485,-765.31604
-2047.732544,671.6063843,-765.3308716
-2047.582764,671.5949097,-765.3534546
-2047.417358,671.5823364,-765.385498
-2047.236084,671.5679321,-765.4284058
-2047.038696,671.5507813,-765.4831543
-2046.824829,671.5299683,-765.5505981
-2046.594482,671.5048828,-765.6311035
-2046.348267,671.475769,-765.723877
-2046.087891,671.4429932,-765.8258057
-2045.815552,671.4060059,-765.9309082
-2045.533813,671.3623047,-766.0313721
-2045.24292,671.3092651,-766.1193848
-2044.943726,671.2463989,-766.1903687
-2044.634766,671.1759033,-766.2435913
-2044.314331,671.102478,-766.2818604
-2043.980469,671.0305176,-766.3092041
-2043.631714,670.9616089,-766.3291626
-2043.266479,670.8952637,-766.3438721
-2042.883057,670.8300171,-766.3550415
-2042.480347,670.7646484,-766.364624
-2042.057373,670.6988525,-766.375061
-2041.612793,670.6331787,-766.3896484
-2041.144287,670.567688,-766.4105225
-2040.650024,670.5010986,-766.43927
-2040.126953,670.4310303,-766.4766846
-2039.571655,670.3553467,-766.5239258
-2038.981079,670.2724609,-766.581665
-2038.351685,670.1817017,-766.6500244
-2037.680786,670.083374,-766.7281494
-2036.965698,669.9776611,-766.8139648
-2036.203247,669.8649902,-766.9055786
-2035.389526,669.7457886,-767.0024414
-2034.521729,669.6206055,-767.1054077
-2033.598145,669.4893188,-767.2155151
-2032.619385,669.3503418,-767.3319092
-2031.5896,669.2006226,-767.4506226
-2030.513184,669.0355225,-767.5645142
-2029.392822,668.8495483,-767.6660156
-2028.226563,668.6381226,-767.7492676
-2027.009888,668.3986816,-767.8118286
-2025.738403,668.1314087,-767.8551636
-2024.408203,667.8369751,-767.8829956
-2023.016113,667.515564,-767.8999634
-2021.560059,667.1669922,-767.9101563
-2020.037842,666.7908936,-767.9171753
-2018.446533,666.3859863,-767.9235229
-2016.784058,665.9502563,-767.9298706
-2015.046021,665.4807129,-767.9352417
-2013.226929,664.9737549,-767.9364014
-2011.319824,664.425415,-767.9294434
-2009.316528,663.8314209,-767.9095459
-2007.20874,663.1872559,-767.8712158
-2004.988525,662.4875488,-767.8077393
-2002.649658,661.727478,-767.7105713
-2000.187988,660.9035034,-767.5700684
-1997.603882,660.0161743,-767.3757935
-1994.901367,659.071106,-767.1187744
-1992.089966,658.0808105,-766.7922363
-1989.184204,657.06427,-766.3931274
-1986.200928,656.0470581,-765.9215698
-1983.157349,655.0587158,-765.3806152
-1980.066162,654.1286621,-764.7747192
-1976.934326,653.2827148,-764.1072998
-1973.760376,652.541626,-763.3791504
-1970.537354,651.9212646,-762.5869141
-1967.253784,651.4346313,-761.7252808
-1963.897461,651.0905762,-760.7893066
-1960.458252,650.8921509,-759.7775879
-1956.929932,650.8359375,-758.6929932
-1953.310913,650.913269,-757.5428467
-1949.602661,651.1134033,-756.3388062
-1945.809814,651.4265747,-755.0969238
-1941.939697,651.8448486,-753.8366699
-1938.002563,652.3623657,-752.5792236
-1934.012207,652.9761963,-751.3469849
-1929.984497,653.687439,-750.1626587
-1925.937378,654.5037842,-749.0495605
-1921.888062,655.4398804,-748.0296021
-1917.851196,656.517395,-747.1220703
-1913.836426,657.7626343,-746.3422852
-1909.845825,659.203064,-745.6999512
-1905.874512,660.8642578,-745.1976929
-1901.912476,662.7669067,-744.8294067
-1897.948853,664.9252319,-744.5797729
-1893.974854,667.3456421,-744.4242554
-1889.985596,670.0256348,-744.331543
-1885.980713,672.9518433,-744.2694702
-1881.963989,676.1014404,-744.2092285
-1877.942993,679.4475708,-744.1274414
-1873.927368,682.9679565,-744.0057373
-1869.928589,686.6498413,-743.8317871
-1865.958008,690.4921875,-743.5985718
-1862.026489,694.503418,-743.303772
-1858.143188,698.6955566,-742.9512939
-1854.313843,703.0767212,-742.553833
-1850.53894,707.6477051,-742.1338501
-1846.815308,712.4038086,-741.7178955
-1843.138306,717.3389893,-741.3302002
-1839.502808,722.4487305,-740.9873657
-1835.9021,727.7302856,-740.6986084
-1832.326538,733.1809692,-740.4667969
-1828.764771,738.7956543,-740.2912598
-1825.204956,744.5633545,-740.1691284
-1821.637329,750.4611816,-740.0962524
-1818.05896,756.4475098,-740.0681152
-1814.480835,762.4550781,-740.0811768
-1810.933838,768.3838501,-740.1334839
-1807.477539,774.0958862,-740.2223511
-1804.205566,779.416626,-740.3398438
-1801.243774,784.1480713,-740.4677124
-1798.038574,790.2180786,-740.2432861
-1794.817139,796.3154297,-740.0015869
-1791.437256,801.8220825,-740.0158691
-1787.903809,807.6265259,-740.0214844
-1784.29834,813.5871582,-740.0218506
-1780.677246,819.6034546,-740.0187378
-1777.071289,825.612854,-740.0143433
-1773.493164,831.583252,-740.0084839
-1769.943481,837.505188,-739.9993896
-1766.410156,843.3839111,-739.9865723
-1762.875244,849.2331543,-739.9700317
-1759.323364,855.069458,-739.9470825
-1755.744141,860.9082642,-739.9129028
-1752.130981,866.7608032,-739.8635864
-1748.480835,872.6315308,-739.7993774
-1744.794189,878.5157471,-739.7258301
-1741.075928,884.4000854,-739.6522827
-1737.334961,890.2669678,-739.5880737
-1733.58374,896.102356,-739.536377
-1729.836914,901.9020386,-739.4906006
-1726.110718,907.6708984,-739.437439
-1722.414063,913.4176636,-739.3671875
-1718.742798,919.1484985,-739.2824707
-1715.085693,924.8623657,-739.1951294
-1711.432495,930.550354,-739.1199951
-1707.775757,936.1987915,-739.0698242
-1704.110229,941.7921143,-739.0540771
-1700.432983,947.3151245,-739.0769043
-1696.743652,952.7550659,-739.1376343
-1693.045654,958.1022339,-739.2307129
-1689.347046,963.3492432,-739.3461304
-1685.663818,968.4884033,-739.4689941
-1682.02002,973.5101929,-739.581543
-1678.436279,978.4046021,-739.6691895
-1674.911621,983.1636353,-739.7300415
-1671.425293,987.7823486,-739.7733765
-1667.956055,992.2557983,-739.8094482
-1664.496094,996.5770264,-739.8424683
-1661.053589,1000.737732,-739.869812
-1657.646729,1004.729126,-739.8850708
-1654.289795,1008.545715,-739.8848267
-1650.984009,1012.186829,-739.8733521
-1647.722534,1015.655701,-739.8585205
-1644.501099,1018.95636,-739.8471069
-1641.319336,1022.093628,-739.8447266
-1638.177734,1025.072754,-739.8568726
-1635.076904,1027.89917,-739.8885498
-1632.017822,1030.578613,-739.9434814
-1629.001343,1033.116333,-740.0228271
-1626.027588,1035.517822,-740.1259155
-1623.09668,1037.788574,-740.2496338
-1620.208862,1039.933105,-740.3892822
-1617.366699,1041.95459,-740.5387573
-1614.57373,1043.854858,-740.6918945
-1611.834473,1045.634888,-740.8428345
-1609.152222,1047.29541,-740.9868774
-1606.529419,1048.837036,-741.1202393
-1603.966675,1050.261353,-741.2407837
-1601.46521,1051.571289,-741.3474731
-1599.026367,1052.770996,-741.4400024
-1596.651733,1053.866333,-741.5194092
-1594.343506,1054.864258,-741.5889893
-1592.104614,1055.771484,-741.6550293
-1589.937012,1056.59314,-741.7261353
-1587.84082,1057.330811,-741.8112793
-1585.814331,1057.982666,-741.9186401
-1583.853882,1058.544556,-742.0545044
-1581.954956,1059.012085,-742.2219849
-1580.112915,1059.382446,-742.4200439
-1578.323975,1059.655518,-742.6427002
-1576.58728,1059.836182,-742.880249
-1574.904175,1059.935059,-743.1188965
-1573.279419,1059.966064,-743.34375
-1571.717407,1059.946655,-743.5424805
-1570.221069,1059.893921,-743.7076416
-1568.796753,1059.823975,-743.8341064
-1567.455688,1059.749756,-743.9182129
-1566.205811,1059.681641,-743.9611816
-1565.045532,1059.627075,-743.9715576
-1563.962646,1059.592163,-743.9638672
-1562.942261,1059.580933,-743.9535522
-1561.975586,1059.595703,-743.9520874
-1561.062012,1059.637451,-743.9648438
-1560.202637,1059.7052,-743.9934692
-1559.396606,1059.795654,-744.038269
-1558.640503,1059.903442,-744.0984497
-1557.93103,1060.020142,-744.1724854
-1557.264648,1060.13562,-744.2580566
-1556.639526,1060.239624,-744.3526611
-1556.054321,1060.323486,-744.4542236
-1555.508179,1060.382324,-744.5606689
-1555.002197,1060.415161,-744.6690063
-1554.538452,1060.425293,-744.7751465
-1554.118774,1060.419678,-744.8754883
-1553.746094,1060.406494,-744.9679565
-1553.423706,1060.394043,-745.0518799
-1553.15564,1060.387573,-745.1280518
-1552.944336,1060.388916,-745.1987915
-1552.790161,1060.395752,-745.2677002
-1552.692627,1060.404297,-745.3388062
-1552.649658,1060.410034,-745.4157715
-1552.659546,1060.411011,-745.5008545
-1552.719727,1060.408081,-745.5946045
-1552.828369,1060.404541,-745.6956787
-1552.98291,1060.404297,-745.8013306
-1553.181519,1060.410156,-745.9082031
-1553.422241,1060.422974,-746.0130005
-1553.703613,1060.440796,-746.1133423
-1554.025146,1060.460205,-746.208374
-1554.38562,1060.476074,-746.298645
-1554.783325,1060.484253,-746.3856812
-1555.215454,1060.481689,-746.4716187
-1555.679565,1060.467896,-746.5588989
-1556.174805,1060.44458,-746.6491089
-1556.700928,1060.414795,-746.743042
-1557.259033,1060.382446,-746.8406372
-1557.851563,1060.35144,-746.9406738
-1558.481689,1060.325073,-747.0415039
-1559.152832,1060.304932,-747.1412964
-1559.86792,1060.291016,-747.2385254
-1560.628662,1060.281738,-747.3321533
-1561.436646,1060.27417,-747.4210205
-1562.291992,1060.266357,-747.5048218
-1563.194824,1060.256592,-747.5845947
-1564.144775,1060.244507,-747.6625977
-1565.141724,1060.230591,-747.7414551
-1566.186157,1060.214111,-747.8232422
-1567.278076,1060.194092,-747.9096069
-1568.417114,1060.16748,-748.0018311
-1569.602661,1060.130249,-748.1011963
-1570.833374,1060.076904,-748.2077637
-1572.107422,1060.002197,-748.3207397
-1573.424072,1059.901611,-748.4390259
-1574.782227,1059.772705,-748.5622559
-1576.182373,1059.614624,-748.6911621
-1577.625854,1059.428101,-748.8267212
-1579.114624,1059.214722,-748.9693604
-1580.651733,1058.975586,-749.1179199
-1582.240845,1058.711182,-749.2709961
-1583.885986,1058.421265,-749.4273071
-1585.59021,1058.105713,-749.5874023
-1587.354248,1057.764282,-749.7528076
-1589.176758,1057.397217,-749.9249268
-1591.054565,1057.005615,-750.1035767
-1592.984375,1056.591187,-750.286499
-1594.963135,1056.156494,-750.4698486
-1596.989014,1055.703003,-750.6497192
-1599.060547,1055.230957,-750.8234253
-1601.176758,1054.737427,-750.9905396
-1603.337036,1054.216919,-751.1526489
-1605.542358,1053.661865,-751.3121338
-1607.794189,1053.063965,-751.4718018
-1610.093628,1052.415039,-751.6346436
-1612.439819,1051.707397,-751.8045654
-1614.830566,1050.932861,-751.9856567
-1617.262451,1050.08313,-752.180603
-1619.731201,1049.148804,-752.3898926
-1622.233521,1048.119873,-752.6112061
-1624.766479,1046.987061,-752.8411865
-1627.328979,1045.743164,-753.0772095
-1629.919922,1044.386475,-753.317688
-1632.538452,1042.922241,-753.5617676
-1635.182617,1041.364014,-753.8092651
-1637.849854,1039.731689,-754.0600586
-1640.535767,1038.047607,-754.3134155
-1643.234863,1036.333008,-754.5673218
-1645.942749,1034.603271,-754.8184204
-1648.655518,1032.865601,-755.0629883
-1651.37146,1031.118042,-755.2980957
-1654.088745,1029.350098,-755.5233765
-1656.807983,1027.546265,-755.7407227
-1659.530151,1025.688965,-755.9539795
-1662.257324,1023.763733,-756.1680908
-1664.991821,1021.760437,-756.3877563
-1667.736938,1019.674622,-756.6160889
-1670.497681,1017.507019,-756.8535156
-1673.281494,1015.262451,-757.0970459
-1676.096191,1012.94751,-757.3407593
-1678.946655,1010.568665,-757.5788574
-1681.828857,1008.130981,-757.8088989
-1684.731689,1005.638062,-758.0318604
-1687.645264,1003.092346,-758.2497559
-1690.566162,1000.494568,-758.4642944
-1693.494507,997.8410645,-758.678833
-1696.431152,995.1240845,-758.8991089
-1699.376099,992.3317871,-759.131958
-1702.327881,989.4499512,-759.3823242
-1705.283936,986.4647217,-759.6509399
-1708.241455,983.3656006,-759.932373
-1711.198364,980.1464844,-760.2155151
-1714.154053,976.807251,-760.4857788
-1717.108887,973.3544922,-760.7276611
-1720.065063,969.8007202,-760.9272461
-1723.025757,966.1625977,-761.0740356
-1725.994141,962.4569092,-761.1639404
-1728.973633,958.6971436,-761.1998291
-1731.966187,954.8907471,-761.1914673
-1734.971924,951.0391235,-761.1531982
-1737.990356,947.1400757,-761.1026611
-1741.020508,943.1890869,-761.057373
-1744.060181,939.1809082,-761.0317993
-1747.108154,935.1099243,-761.0343018
-1750.164429,930.9697876,-761.0667114
-1753.230469,926.7540894,-761.1234131
-1756.308594,922.4571533,-761.1932373
-1759.399658,918.0765991,-761.2629395
-1762.502197,913.6129761,-761.3204346
-1765.611572,909.0698242,-761.3569946
-1768.721436,904.4519653,-761.3671265
-1771.824707,899.7639771,-761.3469849
-1774.915649,895.0103149,-761.2920532
-1777.989258,890.196228,-761.1973877
-1781.042847,885.3275146,-761.0581055
-1784.074463,880.4100342,-760.8699341
-1787.082642,875.4473877,-760.6315308
-1790.065308,870.4403687,-760.3468018
-1793.02002,865.3867188,-760.0257568
-1795.944336,860.2827148,-759.6838989
-1798.83667,855.1262817,-759.3393555
-1801.697632,849.9182129,-759.0087891
-1804.532959,844.6633301,-758.7034912
-1807.351807,839.3695068,-758.4277954
-1810.164185,834.0467529,-758.1834106
-1812.97583,828.7064209,-757.9718018
-1815.796265,823.3601074,-757.7913208
-1818.639282,818.017334,-757.6358643
-1821.519409,812.6847534,-757.4978638
-1824.446777,807.3661499,-757.3710327
-1827.420654,802.0627441,-757.2527466
-1830.425415,796.7730103,-757.1449585
-1833.436401,791.4942627,-757.0496826
-1836.431763,786.2250366,-756.9624023
-1839.397827,780.9660645,-756.8723755
-1842.323486,775.7180786,-756.7717896
-1845.197388,770.480896,-756.6596069
-1848.011841,765.2548828,-756.5391235
-1850.767212,760.0422974,-756.4140625
-1853.469849,754.8476563,-756.2880859
-1856.130371,749.6785889,-756.1640015
-1858.760376,744.546875,-756.0439453
-1861.371094,739.4678345,-755.9291992
-1863.970093,734.4585571,-755.8226929
-1866.561157,729.5359497,-755.7295532
-1869.148926,724.7200928,-755.6535645
-1871.740356,720.0346069,-755.5938721
-1874.342896,715.5026855,-755.5499878
-1876.957397,711.1392822,-755.5287476
-1879.579712,706.9488525,-755.5424194
-1882.206177,702.9324341,-755.598877
-1884.83728,699.0933228,-755.6956177
-1887.4729,695.4372559,-755.8234863
-1890.108521,691.9700928,-755.9718018
-1892.736938,688.696228,-756.1289673
-1895.352661,685.6177979,-756.2813721
-1897.953247,682.7328491,-756.4156494
-1900.540649,680.0349121,-756.5220947
-1903.120605,677.5136719,-756.597168
-1905.70166,675.156311,-756.6435547
-1908.295166,672.9488525,-756.668335
-1910.91272,670.8776245,-756.6809692
-1913.564941,668.9290771,-756.6911621
-1916.26062,667.0905151,-756.7078857
-1919.005859,665.3494263,-756.7391968
-1921.80481,663.6947632,-756.7930298
-1924.660278,662.1181641,-756.8776245
-1927.574341,660.6165161,-757.0012207
-1930.546753,659.1941528,-757.1731567
-1933.574463,657.8647461,-757.4039917
-1936.650024,656.6508789,-757.7041016
-1939.762207,655.5837402,-758.0801392
-1942.896606,654.7017212,-758.5322876
-1946.036499,654.0477295,-759.0518799
-1949.165527,653.6650391,-759.6201172
-1952.271484,653.59198,-760.2090454
-1955.345825,653.8555908,-760.7857666
-1958.38208,654.4644165,-761.3187866
-1961.375488,655.4029541,-761.78302
-1964.326782,656.6299438,-762.1619263
-1967.243042,658.0814819,-762.4481201
-1970.136108,659.6765137,-762.6442871
-1973.015137,661.3244629,-762.7627563
-1975.88208,662.9332886,-762.8237305
-1978.730225,664.418335,-762.8531494
-1981.544434,665.7091064,-762.8806152
-1984.304932,666.7553711,-762.9358521
-1986.991821,667.5303345,-763.0461426
-1989.588989,668.0331421,-763.2313843
-1992.087769,668.2875977,-763.5001221
-1994.487915,668.3392944,-763.8481445
-1996.797119,668.2494507,-764.2593384
-1999.02832,668.0881958,-764.7090454
-2001.197754,667.9262085,-765.1691895
-2003.320801,667.8278198,-765.614624
-2005.409912,667.8432007,-766.0285034
-2007.473145,668.0018921,-766.4041138
-2009.512573,668.3105469,-766.7453613
-2011.524292,668.75354,-767.0635376
-2013.498657,669.2982788,-767.3730469
-2015.422241,669.9020996,-767.6870728
-2017.278809,670.5196533,-768.0151978
-2019.053101,671.1085205,-768.3620605
-2020.731323,671.633667,-768.7278442
-2022.303467,672.0698242,-769.1092529
-2023.764526,672.4021606,-769.5021362
-2025.116089,672.6273804,-769.9042358
-2026.367554,672.7536621,-770.315979
-2027.532959,672.7994995,-770.7396851
-2028.629028,672.7895508,-771.1767578
-2029.673462,672.75177,-771.6253662
-2030.685303,672.7145386,-772.0789795
-2031.681885,672.703125,-772.5269165
-2032.676147,672.7352295,-772.9572754
-2033.673706,672.819397,-773.3588257
-2034.673584,672.9537964,-773.7229614
-2035.668945,673.1286621,-774.0439453
-2036.650024,673.3285522,-774.3190918
-2037.607056,673.5365601,-774.5483398
-2038.532837,673.7371216,-774.7349243
-2039.423584,673.9181519,-774.8850708
-2040.279541,674.0709229,-775.006958
-2041.102783,674.1902466,-775.1089478
-2041.897217,674.2750244,-775.1988525
-2042.66687,674.3275146,-775.2825928
-2043.415161,674.3530884,-775.3637695
-2044.143799,674.3585205,-775.442688
-2044.852661,674.3511963,-775.517395
-2045.540039,674.3380127,-775.5842285
-2046.203491,674.324585,-775.638855
-2046.84082,674.3150635,-775.677002
-2047.451172,674.3117065,-775.6951904
-2048.034424,674.3154297,-775.6921387
-2048.591064,674.3250732,-775.6695557
-2049.123047,674.3381958,-775.6315918
-2049.631592,674.3516846,-775.5839233
-2050.119385,674.3632202,-775.5327759
-2050.5896,674.3721313,-775.4835205
-2051.046387,674.3789673,-775.4396973
-2051.491943,674.385376,-775.4019775
-2051.928711,674.3932495,-775.3688354
-2052.358398,674.4034424,-775.3370361
-2052.780518,674.4158325,-775.3034058
-2053.19458,674.4294434,-775.2654419
-2053.599609,674.4429321,-775.2224731
-2053.992676,674.4545288,-775.1760254
-2054.373047,674.4624023,-775.1286011
-2054.741211,674.4645386,-775.0823975
-2055.098633,674.4591675,-775.0374756
-2055.448242,674.4453735,-774.9926758
-2055.791992,674.423645,-774.9462891
-2056.13208,674.3959961,-774.8972778
-2056.469238,674.3652344,-774.8463745
-2056.806641,674.3345947,-774.7950439
-2057.145752,674.3063354,-774.7449951
-2057.488525,674.2815552,-774.6984863
-2057.834961,674.260498,-774.6585083
-2058.182617,674.2428589,-774.6287231
-2058.527832,674.2269897,-774.6118774
-2058.865967,674.2106934,-774.6086426
-2059.193848,674.1925049,-774.6174316
-2059.509033,674.171875,-774.6345215
-2059.809814,674.1495972,-774.6547852
-2060.094727,674.12677,-774.6726685
-2060.362061,674.1046143,-774.6830444
-2060.610107,674.0844727,-774.6824951
-2060.839111,674.0673828,-774.6697998
-2061.048828,674.0544434,-774.6461792
-2061.239258,674.0467529,-774.6143799
-2061.408936,674.0447998,-774.5774536
-2061.556641,674.0482788,-774.538147
-2061.681152,674.0563965,-774.4980469
-2061.78125,674.0681152,-774.4584351
-2061.855957,674.0830078,-774.4204712
-2061.904785,674.1010132,-774.3853149
-2061.927002,674.1221313,-774.3531494
-2061.921875,674.1459351,-774.3236694
-2061.889404,674.1716309,-774.2964478
-2061.828125,674.1985474,-774.272644
-2061.737793,674.225647,-774.2550049
-2061.615967,674.2519531,-774.2468872
-2061.460938,674.2764893,-774.2514038
-2061.27002,674.298645,-774.2698975
-2061.042236,674.3182373,-774.3023071
-2060.775635,674.335144,-774.3469238
-2060.469727,674.3491821,-774.401062
-2060.124268,674.3596802,-774.461731
-2059.739502,674.3659058,-774.5263672
-2059.315186,674.3674316,-774.593811
-2058.850586,674.364563,-774.6634521
-2058.345459,674.3574829,-774.7360229
-2057.798096,674.3469238,-774.8128052
-2057.208252,674.3337402,-774.895874
-2056.575195,674.3183594,-774.9859619
-2055.898438,674.3004761,-775.081665
-2055.178467,674.2789917,-775.1793823
-2054.416504,674.2537231,-775.2751465
-2053.61377,674.2264404,-775.366272
-2052.772217,674.1994629,-775.4511719
-2051.892578,674.173584,-775.5285034
-2050.976318,674.1477661,-775.5969849
-2050.023682,674.1201782,-775.6558228
-2049.034424,674.0881348,-775.7047729
-2048.008789,674.0490112,-775.7434692
-2046.946655,674.0004272,-775.7712402
-2045.848267,673.9414063,-775.7879028
-2044.713867,673.871582,-775.7932129
-2043.543701,673.7905884,-775.7874146
-2042.336426,673.6970825,-775.7713623
-2041.089966,673.5889893,-775.7467041
-2039.801514,673.4631958,-775.7167358
-2038.468506,673.31604,-775.685791
-2037.087158,673.1436157,-775.6585083
-2035.653687,672.9429932,-775.6398315
-2034.164063,672.7131348,-775.6343994
-2032.61438,672.4534912,-775.6455078
-2031.001465,672.1640015,-775.6742554
-2029.323486,671.8447266,-775.7183228
-2027.580933,671.4958496,-775.7717896
-2025.776489,671.1169434,-775.8259277
-2023.914063,670.7059937,-775.869873
-2021.99231,670.2579346,-775.8942261
-2020.005371,669.7648926,-775.8936768
-2017.945435,669.2182617,-775.866394
-2015.807007,668.6102905,-775.8126831
-2013.587646,667.9349365,-775.7335815
-2011.286865,667.1879272,-775.6293945
-2008.905762,666.3682861,-775.4987183
-2006.446289,665.4793091,-775.3388062
-2003.909912,664.5299072,-775.1461792
-2001.297119,663.53302,-774.9187622
-1998.608154,662.5037842,-774.6559448
-1995.842407,661.458252,-774.3578491
-1993.00061,660.4129028,-774.0241699
-1990.086548,659.3869019,-773.652771
-1987.107544,658.4033203,-773.2385864
-1984.074951,657.4904785,-772.7733765
-1981.001221,656.6815186,-772.2473145
-1977.893921,656.0109863,-771.6514282
-1974.753784,655.508728,-770.9779053
-1971.572388,655.194458,-770.2216187
-1968.335205,655.0740967,-769.3811035
-1965.025024,655.1394653,-768.4608154
-1961.628296,655.3699951,-767.4724121
-1958.139526,655.7362061,-766.4346313
-1954.562378,656.2052002,-765.3707886
-1950.908569,656.7468262,-764.3051758
-1947.196777,657.3394165,-763.258728
-1943.447266,657.9746704,-762.2468872
-1939.678833,658.6602783,-761.2801514
-1935.906128,659.4192505,-760.3653564
-1932.137939,660.286499,-759.5078125
-1928.378052,661.3021851,-758.711853
-1924.626587,662.5049438,-757.9811401
-1920.884033,663.9276123,-757.3182983
-1917.151611,665.5941772,-756.7235718
-1913.432129,667.5178833,-756.1950073
-1909.728516,669.6986084,-755.7294312
-1906.042847,672.1231079,-755.3231201
-1902.377441,674.7695923,-754.968811
-1898.73584,677.6137085,-754.6547852
-1895.124023,680.6316528,-754.3667603
-1891.549072,683.8026123,-754.0913696
-1888.017822,687.1105347,-753.817749
-1884.535522,690.5441895,-753.5386353
-1881.10437,694.0979614,-753.2498779
-1877.7229,697.7698364,-752.9499512
-1874.389038,701.5609131,-752.6391602
-1871.102173,705.4732666,-752.3175049
-1867.863403,709.5078735,-751.986084
-1864.674438,713.661438,-751.6494751
-1861.533569,717.9243774,-751.3179932
-1858.436157,722.2813721,-751.0042725
-1855.377441,726.713623,-750.7185059
-1852.353271,731.2005615,-750.4664917
-1849.359375,735.7213745,-750.2494507
-1846.392822,740.2572632,-750.0656128
-1843.450928,744.7926025,-749.9107666
-1840.533203,749.3156128,-749.7796631
-1837.640503,753.817627,-749.6652222
-1834.776733,758.2926636,-749.5587769
-1831.942505,762.7357178,-749.4543457
-1829.132813,767.1424561,-749.3513184
-1826.340576,771.5092773,-749.2526855
-1823.560669,775.8338623,-749.1610107
-1820.791138,780.1156616,-749.0779419
-1818.031982,784.3555298,-749.0049438
-1815.28418,788.5553589,-748.9429932
-1812.549805,792.7171021,-748.8930664
-1809.831299,796.8433228,-748.8560181
-1807.130005,800.9367065,-748.8326416
-1804.445801,805.0006714,-748.8226318
-1801.776855,809.0388184,-748.8242188
-1799.119629,813.0543823,-748.8343506
-1796.470703,817.0509033,-748.8486938
-1793.826904,821.0321655,-748.862915
-1791.186157,825.0020142,-748.8731689
-1788.547607,828.9639282,-748.8770142
-1785.910278,832.9207764,-748.8733521
-1783.273804,836.8742676,-748.8624878
-1780.638306,840.8256836,-748.8457031
-1778.003784,844.7763062,-748.8249512
-1775.371216,848.7279663,-748.8019409
-1772.742188,852.6834106,-748.7773438
-1770.11792,856.6460571,-748.7516479
-1767.499268,860.6200562,-748.7243652
-1764.886597,864.6102295,-748.6943359
-1762.279419,868.6219482,-748.6596069
-1759.676758,872.6606445,-748.6184082
-1757.077881,876.7299805,-748.5696411
-1754.483276,880.8309937,-748.5145264
-1751.89502,884.9597168,-748.4569702
-1749.316162,889.1061401,-748.4047241
-1746.749634,893.2559814,-748.3679199
-1744.197388,897.3960571,-748.3557129
-1741.658813,901.5197144,-748.3726196
-1739.131958,905.6276245,-748.4177856
-1736.614136,909.7234497,-748.4857178
-1734.103271,913.8092651,-748.5682373
-1731.597778,917.8849487,-748.6564941
-1729.096924,921.9501343,-748.7421875
-1726.599609,926.0043945,-748.819397
-1724.104492,930.0460815,-748.8851318
-1721.610107,934.0717773,-748.93927
-1719.114746,938.0764771,-748.9837646
-1716.615723,942.0546875,-749.022583
-1714.110474,946.0015259,-749.0613403
-1711.595947,949.9121094,-749.1077271
-1709.069824,953.7803955,-749.1690674
-1706.531738,957.5996704,-749.2507935
-1703.984741,961.3643188,-749.3533325
-1701.435425,965.0723877,-749.4718628
-1698.889771,968.7248535,-749.5990601
-1696.349121,972.3237915,-749.7296143
-1693.811157,975.8712158,-749.8601685
-1691.276001,979.3687134,-749.9874878
-1688.743286,982.8175659,-750.1079102
-1686.21106,986.2182007,-750.218811
-1683.675659,989.5700073,-750.3186646
-1681.133667,992.8708496,-750.4068604
-1678.581787,996.1168213,-750.4834595
-1676.017334,999.3031006,-750.5487671
-1673.439209,1002.424316,-750.602478
-1670.84729,1005.475708,-750.6437988
-1668.242798,1008.453796,-750.671875
-1665.628174,1011.357483,-750.6866455
-1663.006104,1014.1875,-750.6900635
-1660.379883,1016.945679,-750.6863403
-1657.752563,1019.63385,-750.6810303
-1655.127441,1022.252991,-750.6798706
-1652.508301,1024.802612,-750.6878662
-1649.898438,1027.279297,-750.7094116
-1647.299561,1029.677612,-750.7484131
-1644.71228,1031.990723,-750.8074951
-1642.135376,1034.21228,-750.8869019
-1639.567261,1036.338135,-750.9847412
-1637.005859,1038.367554,-751.0974121
-1634.449341,1040.303223,-751.2195435
-1631.896851,1042.150146,-751.3441772
-1629.348511,1043.915283,-751.463501
-1626.804932,1045.605591,-751.569458
-1624.267578,1047.226318,-751.6546631
-1621.738281,1048.780396,-751.7124023
-1619.219604,1050.266602,-751.7374878
-1616.714966,1051.68103,-751.7266235
-1614.228638,1053.0177,-751.678833
-1611.765381,1054.269775,-751.5950317
-1609.330566,1055.430664,-751.4777832
-1606.92981,1056.495239,-751.3322144
-1604.569702,1057.460083,-751.1661987
-1602.257324,1058.323608,-750.9904785
-1600.000122,1059.085938,-750.8173218
-1597.805542,1059.749023,-750.6590576
-1595.68042,1060.317139,-750.5261841
-1593.630371,1060.796143,-750.4257813
-1591.660034,1061.194458,-750.3617554
-1589.772583,1061.523438,-750.3354492
-1587.969604,1061.796021,-750.3459473
-1586.251343,1062.027344,-750.3903198
-1584.617432,1062.2323,-750.4628906
-1583.065308,1062.424194,-750.5562134
-1581.590088,1062.613159,-750.6611328
-1580.185303,1062.804443,-750.7692261
-1578.84375,1062.998169,-750.8724976
-1577.558105,1063.190796,-750.9641724
-1576.320801,1063.377319,-751.0373535
-1575.124878,1063.553467,-751.085083
-1573.964111,1063.716919,-751.1004028
-1572.833496,1063.868774,-751.0773926
-1571.729004,1064.013916,-751.0119629
-1570.648926,1064.158813,-750.9026489
-1569.59314,1064.310425,-750.7508545
-1568.563721,1064.471802,-750.5610352
-1567.564209,1064.642944,-750.3406372
-1566.598145,1064.819702,-750.1005859
-1565.668091,1064.995605,-749.8532715
-1564.774658,1065.16333,-749.6113892
-1563.916748,1065.317993,-749.3853149
-1563.091797,1065.457642,-749.1808472
-1562.296753,1065.584961,-748.9979248
-1561.528687,1065.704468,-748.8312378
-1560.784912,1065.820679,-748.6725464
-1560.063232,1065.936157,-748.5130615
-1559.363159,1066.050903,-748.3452759
-1558.683716,1066.162476,-748.1641846
-1558.023193,1066.266479,-747.9677124
-1557.379395,1066.358643,-747.7562256
-1556.749878,1066.435425,-747.5319824
-1556.132813,1066.496094,-747.2984619
-1555.528198,1066.543091,-747.0595703
-1554.9375,1066.582275,-746.8184204
-1554.363525,1066.620728,-746.5770264
-1553.810059,1066.665161,-746.3355713
-1553.28125,1066.718628,-746.0932007
-1552.780762,1066.780884,-745.8491211
-1552.310059,1066.84729,-745.6039429
-1551.867798,1066.910767,-745.3595581
-1551.450562,1066.963989,-745.1182251
-1551.053101,1067.00061,-744.8807373
-1550.669067,1067.0177,-744.6455688
-1550.293335,1067.016235,-744.4087524
-1549.920898,1066.999756,-744.164978
-1549.547607,1066.974243,-743.9083252
-1549.171143,1066.94519,-743.6328125
-1548.790161,1066.916992,-743.333313
-1548.405151,1066.893311,-743.0067749
-1548.016968,1066.87561,-742.6533813
-1547.627808,1066.864502,-742.276062
-1547.240356,1066.859253,-741.8796387
-1546.856567,1066.858521,-741.4698486
-1546.479126,1066.860352,-741.052002
-1546.11084,1066.863647,-740.6314087
-1545.753784,1066.866089,-740.213501
-1545.410522,1066.865967,-739.8035278
-1545.083496,1066.861572,-739.4057007
-1544.773682,1066.85144,-739.0217285
-1544.481812,1066.833862,-738.6505127
-1544.207764,1066.807373,-738.2894287
-1543.950806,1066.770386,-737.9365234
-1543.709839,1066.722412,-737.5913696
-1543.482544,1066.663818,-737.2544556
-1543.26709,1066.595703,-736.9265747
-1543.06189,1066.52002,-736.6082153
-1542.867798,1066.439209,-736.2999268
-1542.687622,1066.355957,-736.0023193
-1542.523804,1066.273804,-735.7180176
-1542.377075,1066.196899,-735.4517822
-1542.247314,1066.129272,-735.2081299
-1542.134399,1066.073364,-734.9894409
-1542.038574,1066.029175,-734.7952881
-1541.958984,1065.994751,-734.6236572
-1541.893433,1065.967285,-734.47229
-1541.839233,1065.942505,-734.3394775
-1541.794189,1065.916382,-734.223999
-1541.755859,1065.885742,-734.125
-1541.722412,1065.848877,-734.0418701
-1541.692505,1065.805786,-733.9743042
-1541.665527,1065.757813,-733.9224854
-1541.641479,1065.707275,-733.8875732
-1541.623291,1065.65625,-733.8704224
-1541.616211,1065.605225,-733.8699951
-1541.627075,1065.552734,-733.8839722
-1541.660278,1065.496216,-733.9103394
-1541.716431,1065.432617,-733.9487915
-1541.793091,1065.358276,-733.9995728
-1541.887085,1065.269531,-734.0627441
-1541.994995,1065.163574,-734.1375122
-1542.113647,1065.039795,-734.2218628
-1542.240601,1064.900513,-734.3135376
-1542.371216,1064.750977,-734.411377
-1542.501343,1064.598389,-734.5151367
-1542.627441,1064.450073,-734.6239014
-1542.748535,1064.311646,-734.7359009
-1542.865845,1064.186646,-734.8491821
-1542.981201,1064.076416,-734.9622192
-1543.096802,1063.979858,-735.0742188
-1543.214233,1063.894531,-735.1854858
-1543.334839,1063.817383,-735.2975464
-1543.460449,1063.744263,-735.4136963
-1543.592285,1063.671509,-735.5387573
-1543.731323,1063.595581,-735.6782227
-1543.878296,1063.514038,-735.8369751
-1544.032104,1063.425293,-736.0178833
-1544.192383,1063.329468,-736.2210083
-1544.357544,1063.227905,-736.4429932
-1544.526489,1063.123779,-736.6785278
-1544.697998,1063.02063,-736.9210815
-1544.871704,1062.921875,-737.1646118
-1545.047119,1062.830566,-737.4042358
-1545.223389,1062.749512,-737.6363525
-1545.399536,1062.681152,-737.859436
-1545.574707,1062.627808,-738.0737915
-1545.748901,1062.591553,-738.2814941
-1545.922607,1062.573486,-738.4863281
-1546.096313,1062.574097,-738.6923218
-1546.269775,1062.592651,-738.9031982
-1546.443359,1062.626709,-739.1204224
-1546.618408,1062.672241,-739.3424072
-1546.797974,1062.723877,-739.5643311
-1546.984985,1062.775757,-739.7802124
-1547.180664,1062.823608,-739.9852905
-1547.382568,1062.865112,-740.1773682
-1547.585449,1062.900146,-740.3566284
-1547.782837,1062.928833,-740.5257568
-1547.970581,1062.951538,-740.6884155
-1548.146606,1062.967163,-740.8485718
-1548.311401,1062.975342,-741.0095825
-1548.466064,1062.975952,-741.173645
-1548.611084,1062.970703,-741.3422241
-1548.746948,1062.962158,-741.5154419
-1548.874023,1062.953369,-741.692688
-1548.993164,1062.947998,-741.8730469
-1549.105225,1062.948608,-742.055542
-1549.211304,1062.956909,-742.2391968
-1549.31189,1062.973145,-742.4229126
-1549.407104,1062.99646,-742.6054077
-1549.496826,1063.025391,-742.7856445
-1549.582397,1063.057495,-742.9625244
-1549.66626,1063.09021,-743.1347046
-1549.750977,1063.121704,-743.3013306
-1549.838379,1063.151489,-743.4626465
-1549.929688,1063.180176,-743.6192017
-1550.026123,1063.208374,-743.7729492
-1550.128418,1063.237549,-743.9273071
-1550.236694,1063.268433,-744.0861206
-1550.351318,1063.301514,-744.2515259
-1550.47168,1063.336792,-744.4234009
-1550.597534,1063.374268,-744.5999756
-1550.727661,1063.414063,-744.7789917
-1550.859985,1063.456665,-744.9591064
-1550.992798,1063.501587,-745.1400146
-1551.123657,1063.548218,-745.3231812
-1551.250977,1063.595947,-745.5098267
-1551.373657,1063.6427,-745.7001343
-1551.492554,1063.686157,-745.8922729
-1551.610718,1063.723755,-746.0821533
-1551.732422,1063.753052,-746.2650146
-1551.861328,1063.773071,-746.4371948
-1551.998657,1063.784668,-746.59729
-1552.143677,1063.790039,-746.7460938
-1552.292725,1063.79248,-746.8865356
-1552.442139,1063.796387,-747.0229492
-1552.588623,1063.804932,-747.1592407
-1552.731079,1063.820435,-747.2980347
-1552.870117,1063.843506,-747.4396362
-1553.00647,1063.874146,-747.5830078
-1553.141113,1063.911377,-747.7262573
-1553.27417,1063.95459,-747.8674927
-1553.405151,1064.002197,-748.005127
-1553.532349,1064.053467,-748.1378174
-1553.654785,1064.106689,-748.2648926
-1553.771973,1064.159912,-748.3864136
-1553.883789,1064.211792,-748.5036011
-1553.991943,1064.260498,-748.6185303
-1554.098999,1064.304321,-748.7332764
-1554.208862,1064.34082,-748.8483887
-1554.325806,1064.368164,-748.9638062
-1554.452026,1064.386108,-749.079834
-1554.588745,1064.395508,-749.1967773
-1554.737549,1064.398071,-749.3131104
-1554.900513,1064.395996,-749.425415
-1555.078491,1064.391724,-749.5310059
-1555.269897,1064.389404,-749.6296387
-1555.470215,1064.392822,-749.7229004
-1555.675659,1064.404785,-749.8122559
-1555.882935,1064.425049,-749.8980713
-1556.090332,1064.451172,-749.9797974
-1556.296387,1064.479492,-750.0565796
-1556.500122,1064.506592,-750.1276855
-1556.700195,1064.529297,-750.1923828
-1556.894653,1064.545044,-750.2496338
-1557.082764,1064.553589,-750.2988892
-1557.264404,1064.554565,-750.3395386
-1557.439819,1064.549561,-750.3718872
-1557.610596,1064.540405,-750.3971558
-1557.77771,1064.529785,-750.4172974
-1557.942261,1064.519409,-750.4346313
-1558.105835,1064.511353,-750.4515381
-1558.269409,1064.506714,-750.4702148
-1558.434326,1064.505859,-750.4926147
-1558.600708,1064.507813,-750.5197754
-1558.768555,1064.51123,-750.5515747
-1558.93689,1064.514526,-750.5866699
-1559.104248,1064.516113,-750.6231079
-1559.269043,1064.514526,-750.6589355
-1559.42981,1064.509155,-750.6929932
-1559.586182,1064.499512,-750.7248535
-1559.737915,1064.487183,-750.7550049
-1559.885498,1064.473877,-750.7843018
-1560.028442,1064.461792,-750.814209
-1560.16626,1064.452759,-750.8462524
-1560.298096,1064.447998,-750.8814697
-1560.423462,1064.448364,-750.9205933
-1560.542236,1064.453857,-750.9638672
-1560.655762,1064.464111,-751.010498
-1560.766235,1064.477905,-751.059021
-1560.875122,1064.493286,-751.1085815
-1560.982056,1064.509277,-751.15979
-1561.08667,1064.524414,-751.2139282
-1561.189087,1064.536743,-751.2712402
-1561.290405,1064.54541,-751.3309326
-1561.391113,1064.550171,-751.3920288
-1561.491333,1064.551147,-751.4523315
-1561.59021,1064.549316,-751.5100098
-1561.68689,1064.545532,-751.5640869
-1561.780518,1064.541138,-751.6143188
-1561.870483,1064.537109,-751.6605835
-1561.957275,1064.53418,-751.703125
-1562.04187,1064.532349,-751.7415771
-1562.125854,1064.531128,-751.7754517
-1562.210815,1064.529419,-751.8041382
-1562.299072,1064.526245,-751.8273926
-1562.391602,1064.521851,-751.8463135
-1562.488525,1064.51709,-751.8635864
-1562.587402,1064.513672,-751.8826294
-1562.68457,1064.513306,-751.9069824
-1562.776733,1064.516479,-751.9384766
-1562.862183,1064.523315,-751.9771729
-1562.94104,1064.532959,-752.0214844
-1563.014648,1064.544312,-752.0684204
-1563.085083,1064.555786,-752.114563
-1563.153809,1064.566162,-752.1560669
-1563.220581,1064.574829,-752.1904297
-1563.281982,1064.583252,-752.2173462
-1563.33252,1064.595825,-752.2381592
-1563.36499,1064.619385,-752.2543945
-1563.370972,1064.663696,-752.2677002
-1563.34021,1064.740601,-752.2796631
